CH1,CH2,CH3,CH4,CH5,CH6,CH7,CH8,Column1
0.023451691,-0.003158571,-0.011701848,0.400031759,0.399999952,0.399999952,0.399999952,0.399999952,
0.023450097,-0.003158368,-0.011715102,0.400030968,0.399999952,0.399999952,0.399999952,0.399999952,
0.023452078,-0.003143315,-0.011648152,0.400026743,0.399999952,0.399999952,0.399999952,0.399999952,
0.02345829,-0.003119202,-0.011527223,0.400020655,0.399999952,0.399999952,0.399999952,0.399999952,
0.023469048,-0.003095737,-0.011398482,0.400014003,0.399999952,0.399999952,0.399999952,0.399999952,
0.023483384,-0.003082622,-0.011310965,0.400007753,0.399999952,0.399999952,0.399999952,0.399999952,
0.023498739,-0.003085525,-0.011299063,0.400002521,0.399999952,0.399999952,0.399999952,0.399999952,
0.023511977,-0.003104044,-0.011369045,0.399998611,0.399999952,0.399999952,0.399999952,0.399999952,
0.023520613,-0.003132026,-0.011495084,0.399996075,0.399999952,0.399999952,0.399999952,0.399999952,
0.023523526,-0.003159905,-0.011628835,0.399994788,0.399999952,0.399999952,0.399999952,0.399999952,
0.023521195,-0.003178275,-0.011718851,0.399994513,0.399999952,0.399999952,0.399999952,0.399999952,
0.023515349,-0.00318123,-0.011730913,0.399994969,0.399999952,0.399999952,0.399999952,0.399999952,
0.023508237,-0.003168383,-0.011660917,0.399995875,0.399999952,0.399999952,0.399999952,0.399999952,
0.023501701,-0.003144635,-0.01153542,0.399996982,0.399999952,0.399999952,0.399999952,0.399999952,
0.023496604,-0.003118132,-0.011401137,0.399998098,0.399999952,0.399999952,0.399999952,0.399999952,
0.023493279,-0.003097924,-0.011308748,0.399999086,0.399999952,0.399999952,0.399999952,0.399999952,
0.023491861,-0.003091069,-0.011294827,0.39999987,0.399999952,0.399999952,0.399999952,0.399999952,
0.023491876,-0.003099496,-0.011366273,0.40000042,0.399999952,0.399999952,0.399999952,0.399999952,
0.02349252,-0.003119337,-0.011495894,0.400000744,0.399999952,0.399999952,0.399999952,0.399999952,
0.023493764,-0.003143413,-0.011633735,0.400000873,0.399999952,0.399999952,0.399999952,0.399999952,
0.023497239,-0.003165194,-0.011727582,0.400000853,0.399999952,0.399999952,0.399999952,0.399999952,
0.023506112,-0.003182256,-0.011742101,0.400000732,0.399999952,0.399999952,0.399999952,0.399999952,
0.023522654,-0.003196346,-0.011670116,0.400000556,0.399999952,0.399999952,0.399999952,0.399999952,
0.023545228,-0.003210503,-0.011533193,0.400000363,0.399999952,0.399999952,0.399999952,0.399999952,
0.023568452,-0.003227167,-0.011371884,0.400000182,0.399999952,0.399999952,0.399999952,0.399999952,
0.023585883,-0.003247731,-0.011230411,0.40000003,0.399999952,0.399999952,0.399999952,0.399999952,
0.023592251,-0.0032715,-0.011141622,0.399999915,0.399999952,0.399999952,0.399999952,0.399999952,
0.023584438,-0.003294353,-0.011115828,0.399999841,0.399999952,0.399999952,0.399999952,0.399999952,
0.023562164,-0.00330922,-0.011137482,0.399999803,0.399999952,0.399999952,0.399999952,0.399999952,
0.023528537,-0.003308772,-0.011172993,0.399999795,0.399999952,0.399999952,0.399999952,0.399999952,
0.023489121,-0.003288027,-0.011186485,0.399999808,0.399999952,0.399999952,0.399999952,0.399999952,
0.023449385,-0.003245291,-0.011155817,0.399999834,0.399999952,0.399999952,0.399999952,0.399999952,
0.023413288,-0.003183035,-0.011083008,0.399999866,0.399999952,0.399999952,0.399999952,0.399999952,
0.023384117,-0.003109215,-0.010994903,0.399999898,0.399999952,0.399999952,0.399999952,0.399999952,
0.023364907,-0.003036304,-0.010933412,0.399999927,0.399999952,0.399999952,0.399999952,0.399999952,
0.023357617,-0.002977621,-0.010940244,0.39999995,0.399999952,0.399999952,0.399999952,0.399999952,
0.023362397,-0.002942987,-0.011040735,0.399999966,0.399999952,0.399999952,0.399999952,0.399999952,
0.023377122,-0.002935061,-0.011230593,0.399999975,0.399999952,0.399999952,0.399999952,0.399999952,
0.023398008,-0.002948642,-0.011473219,0.399999979,0.399999952,0.399999952,0.399999952,0.399999952,
0.023421604,-0.002973942,-0.011712033,0.399999978,0.399999952,0.399999952,0.399999952,0.399999952,
0.023446214,-0.003001157,-0.011891274,0.399999975,0.399999952,0.399999952,0.399999952,0.399999952,
0.023471915,-0.003024137,-0.011975299,0.39999997,0.399999952,0.399999952,0.399999952,0.399999952,
0.023499396,-0.003041886,-0.01196013,0.399999964,0.399999952,0.399999952,0.399999952,0.399999952,
0.023528127,-0.003057286,-0.011873298,0.399999959,0.399999952,0.399999952,0.399999952,0.399999952,
0.023555548,-0.00307472,-0.011762322,0.399999955,0.399999952,0.399999952,0.399999952,0.399999952,
0.023578065,-0.003098208,-0.011677796,0.399999951,0.399999952,0.399999952,0.399999952,0.399999952,
0.023592533,-0.00312967,-0.011655927,0.399999949,0.399999952,0.399999952,0.399999952,0.399999952,
0.02359724,-0.003167382,-0.011704434,0.399999948,0.399999952,0.399999952,0.399999952,0.399999952,
0.023592382,-0.003205965,-0.011799012,0.399999948,0.399999952,0.399999952,0.399999952,0.399999952,
0.023579684,-0.003237798,-0.011893962,0.399999948,0.399999952,0.399999952,0.399999952,0.399999952,
0.023561414,-0.003255187,-0.011941654,0.399999949,0.399999952,0.399999952,0.399999952,0.399999952,
0.023539715,-0.003253003,-0.011911812,0.39999995,0.399999952,0.399999952,0.399999952,0.399999952,
0.023516697,-0.00323116,-0.011803508,0.399999951,0.399999952,0.399999952,0.399999952,0.399999952,
0.023495159,-0.003196057,-0.011645553,0.399999952,0.399999952,0.399999952,0.399999952,0.399999952,
0.023478554,-0.003159348,-0.011485685,0.399999952,0.399999952,0.399999952,0.399999952,0.399999952,
0.0234694,-0.003133554,-0.011373927,0.399999953,0.399999952,0.399999952,0.399999952,0.399999952,
0.023467472,-0.003126508,-0.011344632,0.399999953,0.399999952,0.399999952,0.399999952,0.399999952,
0.023469788,-0.003138024,-0.01140179,0.399999953,0.399999952,0.399999952,0.399999952,0.399999952,
0.023472819,-0.003161036,-0.011516163,0.399999953,0.399999952,0.399999952,0.399999952,0.399999952,
0.023474131,-0.00318488,-0.011637503,0.399999953,0.399999952,0.399999952,0.399999952,0.399999952,
0.023471881,-0.003198045,-0.011714583,0.399999953,0.399999952,0.399999952,0.399999952,0.399999952,
0.023465173,-0.003192131,-0.011714497,0.399999953,0.399999952,0.399999952,0.399999952,0.399999952,
0.023456219,-0.003166971,-0.011635237,0.399999953,0.399999952,0.399999952,0.399999952,0.399999952,
0.023450159,-0.00313161,-0.011505885,0.399999952,0.399999952,0.399999952,0.399999952,0.399999952,
0.02345127,-0.003099214,-0.01137423,0.399999952,0.399999952,0.399999952,0.399999952,0.399999952,
0.02346037,-0.003081215,-0.011288989,0.399999952,0.399999952,0.399999952,0.399999952,0.399999952,
0.023475603,-0.003084138,-0.011282721,0.399999952,0.399999952,0.399999952,0.399999952,0.399999952,
0.02349353,-0.003107583,-0.011358736,0.399999952,0.399999952,0.399999952,0.399999952,0.399999952,
0.023509413,-0.003143451,-0.011488044,0.399999952,0.399999952,0.399999952,0.399999952,0.399999952,
0.023518676,-0.003178779,-0.011620464,0.399999952,0.399999952,0.399999952,0.399999952,0.399999952,
0.023519443,-0.003201561,-0.011705027,0.399999952,0.399999952,0.399999952,0.399999952,0.399999952,
0.02351349,-0.003205719,-0.011710089,0.399999952,0.399999952,0.399999952,0.399999952,0.399999952,
0.023504603,-0.003192455,-0.011634946,0.399999952,0.399999952,0.399999952,0.399999952,0.399999952,
0.023496162,-0.003168493,-0.011508748,0.399999952,0.399999952,0.399999952,0.399999952,0.399999952,
0.023490161,-0.003143492,-0.011378944,0.399999952,0.399999952,0.399999952,0.399999952,0.399999952,
0.023487305,-0.003127204,-0.011294858,0.399999952,0.399999952,0.399999952,0.399999952,0.399999952,
0.023486869,-0.003125762,-0.011289977,0.399999952,0.399999952,0.399999952,0.399999952,0.399999952,
0.023487064,-0.003139153,-0.011367499,0.399999952,0.399999952,0.399999952,0.399999952,0.399999952,
0.023486412,-0.003161872,-0.011497436,0.399999952,0.399999952,0.399999952,0.399999952,0.399999952,
0.023484734,-0.003185682,-0.011628933,0.399999952,0.399999952,0.399999952,0.399999952,0.399999952,
0.023482708,-0.003202386,-0.011711163,0.399999952,0.399999952,0.399999952,0.399999952,0.399999952,
0.023481,-0.003206372,-0.011712902,0.399999952,0.399999952,0.399999952,0.399999952,0.399999952,
0.023480459,-0.003197224,-0.011633891,0.399999952,0.399999952,0.399999952,0.399999952,0.399999952,
0.023482119,-0.003180264,-0.011503977,0.399999952,0.399999952,0.399999952,0.399999952,0.399999952,
0.02348593,-0.003163639,-0.011370916,0.399999952,0.399999952,0.399999952,0.399999952,0.399999952,
0.023490293,-0.00315473,-0.011283321,0.399999952,0.399999952,0.399999952,0.399999952,0.399999952,
0.023493221,-0.003157828,-0.011273786,0.399999952,0.399999952,0.399999952,0.399999952,0.399999952,
0.023493261,-0.003172513,-0.011345511,0.399999952,0.399999952,0.399999952,0.399999952,0.399999952,
0.023489717,-0.003193408,-0.011469487,0.399999952,0.399999952,0.399999952,0.399999952,0.399999952,
0.02348298,-0.003212307,-0.01159617,0.399999952,0.399999952,0.399999952,0.399999952,0.399999952,
0.023474619,-0.003221516,-0.011675742,0.399999952,0.399999952,0.399999952,0.399999952,0.399999952,
0.023466733,-0.003216745,-0.011677452,0.399999952,0.399999952,0.399999952,0.399999952,0.399999952,
0.023461432,-0.003199043,-0.011600993,0.399999952,0.399999952,0.399999952,0.399999952,0.399999952,
0.023460584,-0.003174916,-0.011475781,0.399999952,0.399999952,0.399999952,0.399999952,0.399999952,
0.023464564,-0.003153353,-0.011348943,0.399999952,0.399999952,0.399999952,0.399999952,0.399999952,
0.023471482,-0.00314194,-0.011268109,0.399999952,0.399999952,0.399999952,0.399999952,0.399999952,
0.023478782,-0.003144932,-0.011264639,0.399999952,0.399999952,0.399999952,0.399999952,0.399999952,
0.023484532,-0.003161923,-0.011340702,0.399999952,0.399999952,0.399999952,0.399999952,0.399999952,
0.023486971,-0.003186747,-0.011466495,0.399999952,0.399999952,0.399999952,0.399999952,0.399999952,
0.023484769,-0.003209329,-0.011592075,0.399999952,0.399999952,0.399999952,0.399999952,0.399999952,
0.023478549,-0.003220538,-0.011668113,0.399999952,0.399999952,0.399999952,0.399999952,0.399999952,
0.023471474,-0.00321669,-0.011665294,0.399999952,0.399999952,0.399999952,0.399999952,0.399999952,
0.023467283,-0.003200341,-0.011584788,0.399999952,0.399999952,0.399999952,0.399999952,0.399999952,
0.023467362,-0.003177553,-0.01145626,0.399999952,0.399999952,0.399999952,0.399999952,0.399999952,
0.02347022,-0.003155263,-0.011326184,0.399999952,0.399999952,0.399999952,0.399999952,0.399999952,
0.023473739,-0.003140401,-0.01124232,0.399999952,0.399999952,0.399999952,0.399999952,0.399999952,
0.023476687,-0.003138154,-0.011236938,0.399999952,0.399999952,0.399999952,0.399999952,0.399999952,
0.023478189,-0.003148942,-0.011312664,0.399999952,0.399999952,0.399999952,0.399999952,0.399999952,
0.023477728,-0.003167894,-0.011439575,0.399999952,0.399999952,0.399999952,0.399999952,0.399999952,
0.023476404,-0.003187952,-0.011567353,0.399999952,0.399999952,0.399999952,0.399999952,0.399999952,
0.023477165,-0.003203477,-0.011646102,0.399999952,0.399999952,0.399999952,0.399999952,0.399999952,
0.023482195,-0.003210983,-0.011645995,0.399999952,0.399999952,0.399999952,0.399999952,0.399999952,
0.023490753,-0.003208882,-0.011568113,0.399999952,0.399999952,0.399999952,0.399999952,0.399999952,
0.023501159,-0.00319961,-0.011442624,0.399999952,0.399999952,0.399999952,0.399999952,0.399999952,
0.023512892,-0.003190498,-0.011316638,0.399999952,0.399999952,0.399999952,0.399999952,0.399999952,
0.023525506,-0.003190099,-0.01123802,0.399999952,0.399999952,0.399999952,0.399999952,0.399999952,
0.023537398,-0.003203454,-0.011238402,0.399999952,0.399999952,0.399999952,0.399999952,0.399999952,
0.023546189,-0.00322957,-0.011319057,0.399999952,0.399999952,0.399999952,0.399999952,0.399999952,
0.023549757,-0.00326179,-0.011448683,0.399999952,0.399999952,0.399999952,0.399999952,0.399999952,
0.023547329,-0.003290676,-0.01157678,0.399999952,0.399999952,0.399999952,0.399999952,0.399999952,
0.02353989,-0.00330774,-0.011654622,0.399999952,0.399999952,0.399999952,0.399999952,0.399999952,
0.023529664,-0.003308522,-0.011653628,0.399999952,0.399999952,0.399999952,0.399999952,0.399999952,
0.023519293,-0.003294258,-0.011575355,0.399999952,0.399999952,0.399999952,0.399999952,0.399999952,
0.023510956,-0.003271352,-0.011450147,0.399999952,0.399999952,0.399999952,0.399999952,0.399999952,
0.023505386,-0.003248677,-0.011325357,0.399999952,0.399999952,0.399999952,0.399999952,0.399999952,
0.023501957,-0.003234598,-0.011248517,0.399999952,0.399999952,0.399999952,0.399999952,0.399999952,
0.023499667,-0.003234472,-0.011249993,0.399999952,0.399999952,0.399999952,0.399999952,0.399999952,
0.023497471,-0.003248394,-0.011329977,0.399999952,0.399999952,0.399999952,0.399999952,0.399999952,
0.023494452,-0.003270922,-0.011457305,0.399999952,0.399999952,0.399999952,0.399999952,0.399999952,
0.0234905,-0.003293639,-0.011582213,0.399999952,0.399999952,0.399999952,0.399999952,0.399999952,
0.023486821,-0.003308962,-0.011656516,0.399999952,0.399999952,0.399999952,0.399999952,0.399999952,
0.023485371,-0.003313074,-0.011652336,0.399999952,0.399999952,0.399999952,0.399999952,0.399999952,
0.023487403,-0.003306746,-0.011572119,0.399999952,0.399999952,0.399999952,0.399999952,0.399999952,
0.023492433,-0.003294379,-0.011446389,0.399999952,0.399999952,0.399999952,0.399999952,0.399999952,
0.023498372,-0.003282168,-0.011321839,0.399999952,0.399999952,0.399999952,0.399999952,0.399999952,
0.023502868,-0.003276395,-0.011245663,0.399999952,0.399999952,0.399999952,0.399999952,0.399999952,
0.023504538,-0.003281448,-0.011248892,0.399999952,0.399999952,0.399999952,0.399999952,0.399999952,
0.023502773,-0.003297235,-0.011332326,0.399999952,0.399999952,0.399999952,0.399999952,0.399999952,
0.023497671,-0.003318799,-0.011464197,0.399999952,0.399999952,0.399999952,0.399999952,0.399999952,
0.023490635,-0.003338933,-0.01159339,0.399999952,0.399999952,0.399999952,0.399999952,0.399999952,
0.02348404,-0.003351185,-0.011670629,0.399999952,0.399999952,0.399999952,0.399999952,0.399999952,
0.023480042,-0.003351994,-0.011667645,0.399999952,0.399999952,0.399999952,0.399999952,0.399999952,
0.023479331,-0.003341563,-0.011587133,0.399999952,0.399999952,0.399999952,0.399999952,0.399999952,
0.0234806,-0.003323323,-0.011459995,0.399999952,0.399999952,0.399999952,0.399999952,0.399999952,
0.023481653,-0.003303133,-0.011333127,0.399999952,0.399999952,0.399999952,0.399999952,0.399999952,
0.023481132,-0.003288124,-0.011253596,0.399999952,0.399999952,0.399999952,0.399999952,0.399999952,
0.02347938,-0.003284504,-0.011251998,0.399999952,0.399999952,0.399999952,0.399999952,0.399999952,
0.023478169,-0.003295098,-0.011329265,0.399999952,0.399999952,0.399999952,0.399999952,0.399999952,
0.023479046,-0.003317332,-0.011454683,0.399999952,0.399999952,0.399999952,0.399999952,0.399999952,
0.023481802,-0.003343233,-0.011578161,0.399999952,0.399999952,0.399999952,0.399999952,0.399999952,
0.023485141,-0.003362951,-0.011650735,0.399999952,0.399999952,0.399999952,0.399999952,0.399999952,
0.023488487,-0.003369973,-0.011643928,0.399999952,0.399999952,0.399999952,0.399999952,0.399999952,
0.023492452,-0.003364093,-0.011560468,0.399999952,0.399999952,0.399999952,0.399999952,0.399999952,
0.023497352,-0.003350191,-0.011431964,0.399999952,0.399999952,0.399999952,0.399999952,0.399999952,
0.023502207,-0.003335361,-0.011306131,0.399999952,0.399999952,0.399999952,0.399999952,0.399999952,
0.023505796,-0.003326966,-0.011230399,0.399999952,0.399999952,0.399999952,0.399999952,0.399999952,
0.023507268,-0.00332998,-0.011234736,0.399999952,0.399999952,0.399999952,0.399999952,0.399999952,
0.023505552,-0.003343771,-0.011317895,0.399999952,0.399999952,0.399999952,0.399999952,0.399999952,
0.023499447,-0.003361684,-0.011446414,0.399999952,0.399999952,0.399999952,0.399999952,0.399999952,
0.023488388,-0.003373787,-0.011568801,0.399999952,0.399999952,0.399999952,0.399999952,0.399999952,
0.023473,-0.003370982,-0.011636546,0.399999952,0.399999952,0.399999952,0.399999952,0.399999952,
0.023456302,-0.00335,-0.011622795,0.399999952,0.399999952,0.399999952,0.399999952,0.399999952,
0.023444384,-0.003316838,-0.011532326,0.399999952,0.399999952,0.399999952,0.399999952,0.399999952,
0.023442648,-0.003283291,-0.011398483,0.399999952,0.399999952,0.399999952,0.399999952,0.399999952,
0.02345088,-0.003259429,-0.011269652,0.399999952,0.399999952,0.399999952,0.399999952,0.399999952,
0.02346418,-0.003250454,-0.011192416,0.399999952,0.399999952,0.399999952,0.399999952,0.399999952,
0.023476988,-0.003256943,-0.011195191,0.399999952,0.399999952,0.399999952,0.399999952,0.399999952,
0.023485252,-0.003274763,-0.011276289,0.399999952,0.399999952,0.399999952,0.399999952,0.399999952,
0.023487149,-0.003295983,-0.011403273,0.399999952,0.399999952,0.399999952,0.399999952,0.399999952,
0.023482645,-0.003310835,-0.011525613,0.399999952,0.399999952,0.399999952,0.399999952,0.399999952,
0.02347277,-0.0033105,-0.011594965,0.399999952,0.399999952,0.399999952,0.399999952,0.399999952,
0.023460056,-0.003291102,-0.011584453,0.399999952,0.399999952,0.399999952,0.399999952,0.399999952,
0.023448349,-0.003255948,-0.011498747,0.399999952,0.399999952,0.399999952,0.399999952,0.399999952,
0.023440668,-0.003213474,-0.011370704,0.399999952,0.399999952,0.399999952,0.399999952,0.399999952,
0.023437823,-0.003173726,-0.011248312,0.399999952,0.399999952,0.399999952,0.399999952,0.399999952,
0.023439348,-0.003146036,-0.011178408,0.399999952,0.399999952,0.399999952,0.399999952,0.399999952,
0.023444164,-0.003136195,-0.011189799,0.399999952,0.399999952,0.399999952,0.399999952,0.399999952,
0.023450256,-0.003143522,-0.011280157,0.399999952,0.399999952,0.399999952,0.399999952,0.399999952,
0.023455345,-0.003161143,-0.011415352,0.399999952,0.399999952,0.399999952,0.399999952,0.399999952,
0.023457984,-0.003179058,-0.011543606,0.399999952,0.399999952,0.399999952,0.399999952,0.399999952,
0.023457865,-0.003187758,-0.011616655,0.399999952,0.399999952,0.399999952,0.399999952,0.399999952,
0.023455936,-0.003181858,-0.011608434,0.399999952,0.399999952,0.399999952,0.399999952,0.399999952,
0.023453996,-0.003162142,-0.011524349,0.399999952,0.399999952,0.399999952,0.399999952,0.399999952,
0.023453263,-0.003134344,-0.011397765,0.399999952,0.399999952,0.399999952,0.399999952,0.399999952,
0.023453524,-0.003106369,-0.011277031,0.399999952,0.399999952,0.399999952,0.399999952,0.399999952,
0.023454294,-0.003086386,-0.011208906,0.399999952,0.399999952,0.399999952,0.399999952,0.399999952,
0.023455995,-0.003080744,-0.011221601,0.399999952,0.399999952,0.399999952,0.399999952,0.399999952,
0.023459143,-0.003090852,-0.011312426,0.399999952,0.399999952,0.399999952,0.399999952,0.399999952,
0.023463477,-0.003112,-0.011447717,0.399999952,0.399999952,0.399999952,0.399999952,0.399999952,
0.023468247,-0.003135403,-0.011576501,0.399999952,0.399999952,0.399999952,0.399999952,0.399999952,
0.023472769,-0.003151786,-0.011650792,0.399999952,0.399999952,0.399999952,0.399999952,0.399999952,
0.023477067,-0.003155401,-0.011644103,0.399999952,0.399999952,0.399999952,0.399999952,0.399999952,
0.023482034,-0.003146586,-0.01156142,0.399999952,0.399999952,0.399999952,0.399999952,0.399999952,
0.02348848,-0.003131004,-0.011436233,0.399999952,0.399999952,0.399999952,0.399999952,0.399999952,
0.023495937,-0.003116539,-0.011316899,0.399999952,0.399999952,0.399999952,0.399999952,0.399999952,
0.023502473,-0.003109888,-0.011249301,0.399999952,0.399999952,0.399999952,0.399999952,0.399999952,
0.023505664,-0.00311403,-0.011260462,0.399999952,0.399999952,0.399999952,0.399999952,0.399999952,
0.023503918,-0.00312719,-0.0113472,0.399999952,0.399999952,0.399999952,0.399999952,0.399999952,
0.023497312,-0.003143715,-0.011475922,0.399999952,0.399999952,0.399999952,0.399999952,0.399999952,
0.023487593,-0.003156378,-0.011595796,0.399999952,0.399999952,0.399999952,0.399999952,0.399999952,
0.023477392,-0.003159032,-0.011659733,0.399999952,0.399999952,0.399999952,0.399999952,0.399999952,
0.023468851,-0.003148543,-0.011643285,0.399999952,0.399999952,0.399999952,0.399999952,0.399999952,
0.023462493,-0.003125508,-0.011553188,0.399999952,0.399999952,0.399999952,0.399999952,0.399999952,
0.023458,-0.00309479,-0.01142337,0.399999952,0.399999952,0.399999952,0.399999952,0.399999952,
0.023456037,-0.003065499,-0.011302127,0.399999952,0.399999952,0.399999952,0.399999952,0.399999952,
0.023458173,-0.003048135,-0.0112356,0.399999952,0.399999952,0.399999952,0.399999952,0.399999952,
0.023465318,-0.003049811,-0.011250908,0.399999952,0.399999952,0.399999952,0.399999952,0.399999952,
0.023476303,-0.003070312,-0.011344007,0.399999952,0.399999952,0.399999952,0.399999952,0.399999952,
0.023488199,-0.003101926,-0.01147997,0.399999952,0.399999952,0.399999952,0.399999952,0.399999952,
0.023498624,-0.003133699,-0.011607115,0.399999952,0.399999952,0.399999952,0.399999952,0.399999952,
0.023506685,-0.003155807,-0.011677454,0.399999952,0.399999952,0.399999952,0.399999952,0.399999952,
0.023512213,-0.003162215,-0.011664787,0.399999952,0.399999952,0.399999952,0.399999952,0.399999952,
0.023515839,-0.003152957,-0.011574433,0.399999952,0.399999952,0.399999952,0.399999952,0.399999952,
0.023519046,-0.003134396,-0.011440851,0.399999952,0.399999952,0.399999952,0.399999952,0.399999952,
0.02352303,-0.003116233,-0.01131424,0.399999952,0.399999952,0.399999952,0.399999952,0.399999952,
0.023527729,-0.00310727,-0.011242171,0.399999952,0.399999952,0.399999952,0.399999952,0.399999952,
0.023531892,-0.003111934,-0.011252024,0.399999952,0.399999952,0.399999952,0.399999952,0.399999952,
0.023533586,-0.003128403,-0.011339363,0.399999952,0.399999952,0.399999952,0.399999952,0.399999952,
0.023531226,-0.003149541,-0.011468891,0.399999952,0.399999952,0.399999952,0.399999952,0.399999952,
0.023524981,-0.003166469,-0.011589267,0.399999952,0.399999952,0.399999952,0.399999952,0.399999952,
0.023516903,-0.003172233,-0.01165398,0.399999952,0.399999952,0.399999952,0.399999952,0.399999952,
0.023509476,-0.003163861,-0.011638773,0.399999952,0.399999952,0.399999952,0.399999952,0.399999952,
0.023504317,-0.003143036,-0.011549817,0.399999952,0.399999952,0.399999952,0.399999952,0.399999952,
0.023501659,-0.003115317,-0.011420313,0.399999952,0.399999952,0.399999952,0.399999952,0.399999952,
0.023500369,-0.003088095,-0.01129798,0.399999952,0.399999952,0.399999952,0.399999952,0.399999952,
0.023498888,-0.003068453,-0.011228761,0.399999952,0.399999952,0.399999952,0.399999952,0.399999952,
0.023496409,-0.00306109,-0.011240048,0.399999952,0.399999952,0.399999952,0.399999952,0.399999952,
0.023493408,-0.003066716,-0.011328382,0.399999952,0.399999952,0.399999952,0.399999952,0.399999952,
0.023491392,-0.003081872,-0.011459374,0.399999952,0.399999952,0.399999952,0.399999952,0.399999952,
0.023491768,-0.003099858,-0.011581686,0.399999952,0.399999952,0.399999952,0.399999952,0.399999952,
0.023495328,-0.003113356,-0.011648247,0.399999952,0.399999952,0.399999952,0.399999952,0.399999952,
0.023502924,-0.003118393,-0.011634903,0.399999952,0.399999952,0.399999952,0.399999952,0.399999952,
0.023514963,-0.00311588,-0.011548667,0.399999952,0.399999952,0.399999952,0.399999952,0.399999952,
0.023529853,-0.003109815,-0.011423261,0.399999952,0.399999952,0.399999952,0.399999952,0.399999952,
0.023544202,-0.003105347,-0.01130599,0.399999952,0.399999952,0.399999952,0.399999952,0.399999952,
0.023554704,-0.00310756,-0.01124149,0.399999952,0.399999952,0.399999952,0.399999952,0.399999952,
0.023559185,-0.003119252,-0.011255268,0.399999952,0.399999952,0.399999952,0.399999952,0.399999952,
0.023556327,-0.003138472,-0.011341959,0.399999952,0.399999952,0.399999952,0.399999952,0.399999952,
0.023545875,-0.003158778,-0.011466368,0.399999952,0.399999952,0.399999952,0.399999952,0.399999952,
0.023529378,-0.003172259,-0.01157841,0.399999952,0.399999952,0.399999952,0.399999952,0.399999952,
0.023510056,-0.00317287,-0.011633491,0.399999952,0.399999952,0.399999952,0.399999952,0.399999952,
0.023491683,-0.003158756,-0.011609498,0.399999952,0.399999952,0.399999952,0.399999952,0.399999952,
0.023477366,-0.00313312,-0.01151482,0.399999952,0.399999952,0.399999952,0.399999952,0.399999952,
0.023468657,-0.003103177,-0.011384404,0.399999952,0.399999952,0.399999952,0.399999952,0.399999952,
0.023465381,-0.003077818,-0.011266558,0.399999952,0.399999952,0.399999952,0.399999952,0.399999952,
0.023466143,-0.003064807,-0.011206508,0.399999952,0.399999952,0.399999952,0.399999952,0.399999952,
0.023468621,-0.003067519,-0.011229833,0.399999952,0.399999952,0.399999952,0.399999952,0.399999952,
0.023469879,-0.003082903,-0.011330336,0.399999952,0.399999952,0.399999952,0.399999952,0.399999952,
0.023467998,-0.003103253,-0.011470782,0.399999952,0.399999952,0.399999952,0.399999952,0.399999952,
0.023463771,-0.00312037,-0.011598316,0.399999952,0.399999952,0.399999952,0.399999952,0.399999952,
0.023460109,-0.003128558,-0.011666163,0.399999952,0.399999952,0.399999952,0.399999952,0.399999952,
0.023459874,-0.003125835,-0.011651263,0.399999952,0.399999952,0.399999952,0.399999952,0.399999952,
0.023464272,-0.003114157,-0.011561804,0.399999952,0.399999952,0.399999952,0.399999952,0.399999952,
0.023472576,-0.00309871,-0.011433218,0.399999952,0.399999952,0.399999952,0.399999952,0.399999952,
0.023482969,-0.003086554,-0.01131502,0.399999952,0.399999952,0.399999952,0.399999952,0.399999952,
0.023493791,-0.003084802,-0.011253042,0.399999952,0.399999952,0.399999952,0.399999952,0.399999952,
0.023503411,-0.003097229,-0.011271647,0.399999952,0.399999952,0.399999952,0.399999952,0.399999952,
0.023509249,-0.003120901,-0.011362909,0.399999952,0.399999952,0.399999952,0.399999952,0.399999952,
0.023509191,-0.003147498,-0.011489939,0.399999952,0.399999952,0.399999952,0.399999952,0.399999952,
0.023503853,-0.003168014,-0.011602503,0.399999952,0.399999952,0.399999952,0.399999952,0.399999952,
0.023495891,-0.00317583,-0.011656252,0.399999952,0.399999952,0.399999952,0.399999952,0.399999952,
0.023488002,-0.003168196,-0.011629158,0.399999952,0.399999952,0.399999952,0.399999952,0.399999952,
0.023482425,-0.003147693,-0.011530122,0.399999952,0.399999952,0.399999952,0.399999952,0.399999952,
0.023481038,-0.003122113,-0.011395428,0.399999952,0.399999952,0.399999952,0.399999952,0.399999952,
0.023484413,-0.003101369,-0.011274953,0.399999952,0.399999952,0.399999952,0.399999952,0.399999952,
0.023491094,-0.003093357,-0.011214492,0.399999952,0.399999952,0.399999952,0.399999952,0.399999952,
0.023498607,-0.003101391,-0.011238658,0.399999952,0.399999952,0.399999952,0.399999952,0.399999952,
0.023504822,-0.003123361,-0.011339666,0.399999952,0.399999952,0.399999952,0.399999952,0.399999952,
0.023508038,-0.00315193,-0.011479048,0.399999952,0.399999952,0.399999952,0.399999952,0.399999952,
0.02350658,-0.003176245,-0.011603174,0.399999952,0.399999952,0.399999952,0.399999952,0.399999952,
0.023499613,-0.003186079,-0.011664961,0.399999952,0.399999952,0.399999952,0.399999952,0.399999952,
0.023487841,-0.003176068,-0.011641944,0.399999952,0.399999952,0.399999952,0.399999952,0.399999952,
0.023472612,-0.00314695,-0.011543777,0.399999952,0.399999952,0.399999952,0.399999952,0.399999952,
0.023455778,-0.003105356,-0.011407429,0.399999952,0.399999952,0.399999952,0.399999952,0.399999952,
0.023440802,-0.003063152,-0.011283635,0.399999952,0.399999952,0.399999952,0.399999952,0.399999952,
0.023432414,-0.003034324,-0.01121945,0.399999952,0.399999952,0.399999952,0.399999952,0.399999952,
0.023434142,-0.003029203,-0.011240263,0.399999952,0.399999952,0.399999952,0.399999952,0.399999952,
0.023445372,-0.003048775,-0.011338038,0.399999952,0.399999952,0.399999952,0.399999952,0.399999952,
0.02346139,-0.003083978,-0.01147413,0.399999952,0.399999952,0.399999952,0.399999952,0.399999952,
0.023477335,-0.003121569,-0.011595797,0.399999952,0.399999952,0.399999952,0.399999952,0.399999952,
0.023491111,-0.003150715,-0.011657162,0.399999952,0.399999952,0.399999952,0.399999952,0.399999952,
0.023502334,-0.003165566,-0.011636074,0.399999952,0.399999952,0.399999952,0.399999952,0.399999952,
0.023510683,-0.003165573,-0.011541691,0.399999952,0.399999952,0.399999952,0.399999952,0.399999952,
0.023515835,-0.003155162,-0.011410283,0.399999952,0.399999952,0.399999952,0.399999952,0.399999952,
0.023517675,-0.003141964,-0.011291556,0.399999952,0.399999952,0.399999952,0.399999952,0.399999952,
0.02351628,-0.003133834,-0.011231137,0.399999952,0.399999952,0.399999952,0.399999952,0.399999952,
0.023511867,-0.003135588,-0.011253478,0.399999952,0.399999952,0.399999952,0.399999952,0.399999952,
0.023504563,-0.003146657,-0.011350586,0.399999952,0.399999952,0.399999952,0.399999952,0.399999952,
0.023494651,-0.003161486,-0.011484234,0.399999952,0.399999952,0.399999952,0.399999952,0.399999952,
0.023483336,-0.003172627,-0.011602215,0.399999952,0.399999952,0.399999952,0.399999952,0.399999952,
0.023472959,-0.003174358,-0.011659774,0.399999952,0.399999952,0.399999952,0.399999952,0.399999952,
0.023466366,-0.003165279,-0.011636746,0.399999952,0.399999952,0.399999952,0.399999952,0.399999952,
0.023465626,-0.003148783,-0.011544177,0.399999952,0.399999952,0.399999952,0.399999952,0.399999952,
0.023470466,-0.003130955,-0.01141829,0.399999952,0.399999952,0.399999952,0.399999952,0.399999952,
0.023478104,-0.003117926,-0.0113065,0.399999952,0.399999952,0.399999952,0.399999952,0.399999952,
0.02348515,-0.003114511,-0.011251677,0.399999952,0.399999952,0.399999952,0.399999952,0.399999952,
0.023489248,-0.003122747,-0.011276738,0.399999952,0.399999952,0.399999952,0.399999952,0.399999952,
0.02348894,-0.003139909,-0.01137374,0.399999952,0.399999952,0.399999952,0.399999952,0.399999952,
0.023483476,-0.003158674,-0.011505422,0.399999952,0.399999952,0.399999952,0.399999952,0.399999952,
0.023473622,-0.003170356,-0.011620438,0.399999952,0.399999952,0.399999952,0.399999952,0.399999952,
0.023461984,-0.003168802,-0.011674197,0.399999952,0.399999952,0.399999952,0.399999952,0.399999952,
0.023451839,-0.003152604,-0.011646113,0.399999952,0.399999952,0.399999952,0.399999952,0.399999952,
0.023445582,-0.003125307,-0.011546774,0.399999952,0.399999952,0.399999952,0.399999952,0.399999952,
0.02344405,-0.003094186,-0.011412823,0.399999952,0.399999952,0.399999952,0.399999952,0.399999952,
0.023446798,-0.003068194,-0.011293316,0.399999952,0.399999952,0.399999952,0.399999952,0.399999952,
0.023452791,-0.003055437,-0.011232916,0.399999952,0.399999952,0.399999952,0.399999952,0.399999952,
0.023460518,-0.00305993,-0.011255055,0.399999952,0.399999952,0.399999952,0.399999952,0.399999952,
0.023467537,-0.003078951,-0.011350861,0.399999952,0.399999952,0.399999952,0.399999952,0.399999952,
0.02347125,-0.003103931,-0.011481745,0.399999952,0.399999952,0.399999952,0.399999952,0.399999952,
0.023470744,-0.00312465,-0.011595525,0.399999952,0.399999952,0.399999952,0.399999952,0.399999952,
0.023467544,-0.003133647,-0.011647422,0.399999952,0.399999952,0.399999952,0.399999952,0.399999952,
0.023464648,-0.003128827,-0.01161732,0.399999952,0.399999952,0.399999952,0.399999952,0.399999952,
0.023464755,-0.003113603,-0.011516963,0.399999952,0.399999952,0.399999952,0.399999952,0.399999952,
0.023468625,-0.003094716,-0.011384324,0.399999952,0.399999952,0.399999952,0.399999952,0.399999952,
0.023474524,-0.003079226,-0.0112691,0.399999952,0.399999952,0.399999952,0.399999952,0.399999952,
0.02347941,-0.003072306,-0.011215346,0.399999952,0.399999952,0.399999952,0.399999952,0.399999952,
0.02348099,-0.003076056,-0.011244856,0.399999952,0.399999952,0.399999952,0.399999952,0.399999952,
0.023478903,-0.003088955,-0.011347011,0.399999952,0.399999952,0.399999952,0.399999952,0.399999952,
0.023474426,-0.003106166,-0.011482249,0.399999952,0.399999952,0.399999952,0.399999952,0.399999952,
0.023469281,-0.00312075,-0.011598527,0.399999952,0.399999952,0.399999952,0.399999952,0.399999952,
0.023464514,-0.003125739,-0.01165207,0.399999952,0.399999952,0.399999952,0.399999952,0.399999952,
0.02346123,-0.003117931,-0.011623743,0.399999952,0.399999952,0.399999952,0.399999952,0.399999952,
0.023461974,-0.0031012,-0.011525546,0.399999952,0.399999952,0.399999952,0.399999952,0.399999952,
0.023469149,-0.003084691,-0.011395356,0.399999952,0.399999952,0.399999952,0.399999952,0.399999952,
0.023481993,-0.003077318,-0.011282915,0.399999952,0.399999952,0.399999952,0.399999952,0.399999952,
0.023496622,-0.003084118,-0.011232203,0.399999952,0.399999952,0.399999952,0.399999952,0.399999952,
0.023508528,-0.003105243,-0.011264616,0.399999952,0.399999952,0.399999952,0.399999952,0.399999952,
0.023514326,-0.003135791,-0.011369026,0.399999952,0.399999952,0.399999952,0.399999952,0.399999952,
0.023512684,-0.003167263,-0.011505537,0.399999952,0.399999952,0.399999952,0.399999952,0.399999952,
0.023504683,-0.003190608,-0.011622005,0.399999952,0.399999952,0.399999952,0.399999952,0.399999952,
0.02349314,-0.003199265,-0.01167466,0.399999952,0.399999952,0.399999952,0.399999952,0.399999952,
0.023481574,-0.003191578,-0.011644691,0.399999952,0.399999952,0.399999952,0.399999952,0.399999952,
0.023472926,-0.003171302,-0.011544726,0.399999952,0.399999952,0.399999952,0.399999952,0.399999952,
0.023468202,-0.003145651,-0.011412716,0.399999952,0.399999952,0.399999952,0.399999952,0.399999952,
0.023466427,-0.003122833,-0.011297484,0.399999952,0.399999952,0.399999952,0.399999952,0.399999952,
0.023465851,-0.003109906,-0.011242118,0.399999952,0.399999952,0.399999952,0.399999952,0.399999952,
0.023465052,-0.00311049,-0.011268305,0.399999952,0.399999952,0.399999952,0.399999952,0.399999952,
0.023463327,-0.003123181,-0.011366247,0.399999952,0.399999952,0.399999952,0.399999952,0.399999952,
0.023460499,-0.003141781,-0.011497067,0.399999952,0.399999952,0.399999952,0.399999952,0.399999952,
0.023456832,-0.003157685,-0.011608501,0.399999952,0.399999952,0.399999952,0.399999952,0.399999952,
0.023453212,-0.003163535,-0.011656239,0.399999952,0.399999952,0.399999952,0.399999952,0.399999952,
0.023450661,-0.003155956,-0.011621461,0.399999952,0.399999952,0.399999952,0.399999952,0.399999952,
0.023449458,-0.003136271,-0.011517401,0.399999952,0.399999952,0.399999952,0.399999952,0.399999952,
0.023448566,-0.003109234,-0.011382823,0.399999952,0.399999952,0.399999952,0.399999952,0.399999952,
0.023445965,-0.003080941,-0.011267187,0.399999952,0.399999952,0.399999952,0.399999952,0.399999952,
0.023440709,-0.003057831,-0.011213836,0.399999952,0.399999952,0.399999952,0.399999952,0.399999952,
0.023434364,-0.003045485,-0.011244134,0.399999952,0.399999952,0.399999952,0.399999952,0.399999952,
0.02342926,-0.003045332,-0.011347328,0.399999952,0.399999952,0.399999952,0.399999952,0.399999952,
0.023427373,-0.003053817,-0.011483598,0.399999952,0.399999952,0.399999952,0.399999952,0.399999952,
0.023431822,-0.003066314,-0.011600348,0.399999952,0.399999952,0.399999952,0.399999952,0.399999952,
0.023445477,-0.003079137,-0.011653189,0.399999952,0.399999952,0.399999952,0.399999952,0.399999952,
0.023467594,-0.003088853,-0.011622948,0.399999952,0.399999952,0.399999952,0.399999952,0.399999952,
0.023494709,-0.003094246,-0.011522448,0.399999952,0.399999952,0.399999952,0.399999952,0.399999952,
0.023523024,-0.003098025,-0.011390512,0.399999952,0.399999952,0.399999952,0.399999952,0.399999952,
0.023548755,-0.003104953,-0.011277232,0.399999952,0.399999952,0.399999952,0.399999952,0.399999952,
0.02356845,-0.003119054,-0.011226279,0.399999952,0.399999952,0.399999952,0.399999952,0.399999952,
0.023579447,-0.003141024,-0.011258007,0.399999952,0.399999952,0.399999952,0.399999952,0.399999952,
0.02358036,-0.003167114,-0.011360188,0.399999952,0.399999952,0.399999952,0.399999952,0.399999952,
0.023571876,-0.003190656,-0.011492852,0.399999952,0.399999952,0.399999952,0.399999952,0.399999952,
0.023556611,-0.003204547,-0.01160468,0.399999952,0.399999952,0.399999952,0.399999952,0.399999952,
0.023538143,-0.003203771,-0.011652963,0.399999952,0.399999952,0.399999952,0.399999952,0.399999952,
0.023520146,-0.003187694,-0.01161988,0.399999952,0.399999952,0.399999952,0.399999952,0.399999952,
0.023505766,-0.003160996,-0.011518863,0.399999952,0.399999952,0.399999952,0.399999952,0.399999952,
0.023496865,-0.00313221,-0.011388522,0.399999952,0.399999952,0.399999952,0.399999952,0.399999952,
0.023493239,-0.003110484,-0.01127818,0.399999952,0.399999952,0.399999952,0.399999952,0.399999952,
0.023492966,-0.003102494,-0.011230812,0.399999952,0.399999952,0.399999952,0.399999952,0.399999952,
0.023493488,-0.003110164,-0.011266642,0.399999952,0.399999952,0.399999952,0.399999952,0.399999952,
0.023492229,-0.003129367,-0.011373091,0.399999952,0.399999952,0.399999952,0.399999952,0.399999952,
0.02348712,-0.003150998,-0.011508711,0.399999952,0.399999952,0.399999952,0.399999952,0.399999952,
0.023477516,-0.003164594,-0.011620491,0.399999952,0.399999952,0.399999952,0.399999952,0.399999952,
0.023464916,-0.003162814,-0.0116653,0.399999952,0.399999952,0.399999952,0.399999952,0.399999952,
0.023452646,-0.003144566,-0.011626304,0.399999952,0.399999952,0.399999952,0.399999952,0.399999952,
0.023444299,-0.003115135,-0.011518402,0.399999952,0.399999952,0.399999952,0.399999952,0.399999952,
0.023441918,-0.003083636,-0.011381177,0.399999952,0.399999952,0.399999952,0.399999952,0.399999952,
0.023445157,-0.003059582,-0.011264063,0.399999952,0.399999952,0.399999952,0.399999952,0.399999952,
0.023451753,-0.003049781,-0.01120948,0.399999952,0.399999952,0.399999952,0.399999952,0.399999952,
0.023458936,-0.003056294,-0.011237068,0.399999952,0.399999952,0.399999952,0.399999952,0.399999952,
0.023464757,-0.00307596,-0.011334415,0.399999952,0.399999952,0.399999952,0.399999952,0.399999952,
0.023468438,-0.003101475,-0.011461144,0.399999952,0.399999952,0.399999952,0.399999952,0.399999952,
0.023470295,-0.003123974,-0.011565747,0.399999952,0.399999952,0.399999952,0.399999952,0.399999952,
0.023471445,-0.003136218,-0.011606177,0.399999952,0.399999952,0.399999952,0.399999952,0.399999952,
0.023473016,-0.003134987,-0.011565381,0.399999952,0.399999952,0.399999952,0.399999952,0.399999952,
0.023475346,-0.003121826,-0.011457007,0.399999952,0.399999952,0.399999952,0.399999952,0.399999952,
0.023477646,-0.003101992,-0.011319815,0.399999952,0.399999952,0.399999952,0.399999952,0.399999952,
0.023478713,-0.003082791,-0.011203541,0.399999952,0.399999952,0.399999952,0.399999952,0.399999952,
0.023478533,-0.003072146,-0.011151211,0.399999952,0.399999952,0.399999952,0.399999952,0.399999952,
0.023478217,-0.003075594,-0.011182198,0.399999952,0.399999952,0.399999952,0.399999952,0.399999952,
0.023477713,-0.003092055,-0.01128268,0.399999952,0.399999952,0.399999952,0.399999952,0.399999952,
0.023475392,-0.003113553,-0.011410876,0.399999952,0.399999952,0.399999952,0.399999952,0.399999952,
0.023470246,-0.003129803,-0.011514861,0.399999952,0.399999952,0.399999952,0.399999952,0.399999952,
0.023463264,-0.003133294,-0.011552843,0.399999952,0.399999952,0.399999952,0.399999952,0.399999952,
0.023457191,-0.00312254,-0.011508367,0.399999952,0.399999952,0.399999952,0.399999952,0.399999952,
0.023455287,-0.003102568,-0.011395898,0.399999952,0.399999952,0.399999952,0.399999952,0.399999952,
0.023459505,-0.00308229,-0.011254763,0.399999952,0.399999952,0.399999952,0.399999952,0.399999952,
0.023469408,-0.003070795,-0.011135033,0.399999952,0.399999952,0.399999952,0.399999952,0.399999952,
0.023482754,-0.003074523,-0.011080321,0.399999952,0.399999952,0.399999952,0.399999952,0.399999952,
0.023496628,-0.003095125,-0.011110927,0.399999952,0.399999952,0.399999952,0.399999952,0.399999952,
0.023508059,-0.003128185,-0.011214129,0.399999952,0.399999952,0.399999952,0.399999952,0.399999952,
0.023514785,-0.003164461,-0.011348632,0.399999952,0.399999952,0.399999952,0.399999952,0.399999952,
0.02351624,-0.003193514,-0.011461523,0.399999952,0.399999952,0.399999952,0.399999952,0.399999952,
0.023513697,-0.003207564,-0.011509361,0.399999952,0.399999952,0.399999952,0.399999952,0.399999952,
0.023509393,-0.003204052,-0.011474943,0.399999952,0.399999952,0.399999952,0.399999952,0.399999952,
0.023505389,-0.003186176,-0.011372973,0.399999952,0.399999952,0.399999952,0.399999952,0.399999952,
0.023502906,-0.003161511,-0.011243028,0.399999952,0.399999952,0.399999952,0.399999952,0.399999952,
0.023502306,-0.003139528,-0.011134931,0.399999952,0.399999952,0.399999952,0.399999952,0.399999952,
0.023503238,-0.003128419,-0.011091629,0.399999952,0.399999952,0.399999952,0.399999952,0.399999952,
0.023504636,-0.003131761,-0.011132476,0.399999952,0.399999952,0.399999952,0.399999952,0.399999952,
0.023504707,-0.003146578,-0.011243575,0.399999952,0.399999952,0.399999952,0.399999952,0.399999952,
0.023501768,-0.003164694,-0.011382833,0.399999952,0.399999952,0.399999952,0.399999952,0.399999952,
0.023495907,-0.003177129,-0.011498095,0.399999952,0.399999952,0.399999952,0.399999952,0.399999952,
0.023489337,-0.003178188,-0.011548429,0.399999952,0.399999952,0.399999952,0.399999952,0.399999952,
0.023484783,-0.003167058,-0.011519495,0.399999952,0.399999952,0.399999952,0.399999952,0.399999952,
0.023483849,-0.003147516,-0.011427801,0.399999952,0.399999952,0.399999952,0.399999952,0.399999952,
0.023486223,-0.003126175,-0.011313025,0.399999952,0.399999952,0.399999952,0.399999952,0.399999952,
0.023489938,-0.003110128,-0.011223387,0.399999952,0.399999952,0.399999952,0.399999952,0.399999952,
0.023492586,-0.003104826,-0.01119917,0.399999952,0.399999952,0.399999952,0.399999952,0.399999952,
0.023491943,-0.003111552,-0.011256796,0.399999952,0.399999952,0.399999952,0.399999952,0.399999952,
0.023486067,-0.003125827,-0.011380131,0.399999952,0.399999952,0.399999952,0.399999952,0.399999952,
0.02347453,-0.003139478,-0.011526217,0.399999952,0.399999952,0.399999952,0.399999952,0.399999952,
0.023460164,-0.003145481,-0.011642817,0.399999952,0.399999952,0.399999952,0.399999952,0.399999952,
0.023448336,-0.003141206,-0.011688778,0.399999952,0.399999952,0.399999952,0.399999952,0.399999952,
0.023443394,-0.003127952,-0.011649392,0.399999952,0.399999952,0.399999952,0.399999952,0.399999952,
0.0234462,-0.003109422,-0.011541183,0.399999952,0.399999952,0.399999952,0.399999952,0.399999952,
0.023454783,-0.003091119,-0.011404918,0.399999952,0.399999952,0.399999952,0.399999952,0.399999952,
0.023466028,-0.003079417,-0.011291117,0.399999952,0.399999952,0.399999952,0.399999952,0.399999952,
0.023477015,-0.00307965,-0.011242845,0.399999952,0.399999952,0.399999952,0.399999952,0.399999952,
0.023485735,-0.003093757,-0.011279155,0.399999952,0.399999952,0.399999952,0.399999952,0.399999952,
0.023490597,-0.003118166,-0.011385671,0.399999952,0.399999952,0.399999952,0.399999952,0.399999952,
0.023490021,-0.003144001,-0.011519582,0.399999952,0.399999952,0.399999952,0.399999952,0.399999952,
0.023483646,-0.003160973,-0.011627799,0.399999952,0.399999952,0.399999952,0.399999952,0.399999952,
0.023473604,-0.003162446,-0.011668664,0.399999952,0.399999952,0.399999952,0.399999952,0.399999952,
0.023463745,-0.003148089,-0.011627557,0.399999952,0.399999952,0.399999952,0.399999952,0.399999952,
0.023457367,-0.003123078,-0.011521065,0.399999952,0.399999952,0.399999952,0.399999952,0.399999952,
0.023455505,-0.003095411,-0.011389482,0.399999952,0.399999952,0.399999952,0.399999952,0.399999952,
0.023457049,-0.003073307,-0.011282344,0.399999952,0.399999952,0.399999952,0.399999952,0.399999952,
0.023460177,-0.0030632,-0.011241529,0.399999952,0.399999952,0.399999952,0.399999952,0.399999952,
0.023463727,-0.003067984,-0.011284818,0.399999952,0.399999952,0.399999952,0.399999952,0.399999952,
0.023467364,-0.003085714,-0.011396784,0.399999952,0.399999952,0.399999952,0.399999952,0.399999952,
0.023470824,-0.003109646,-0.011534377,0.399999952,0.399999952,0.399999952,0.399999952,0.399999952,
0.023474019,-0.003130918,-0.011645083,0.399999952,0.399999952,0.399999952,0.399999952,0.399999952,
0.023477605,-0.003142551,-0.011687878,0.399999952,0.399999952,0.399999952,0.399999952,0.399999952,
0.023481957,-0.003141445,-0.011648239,0.399999952,0.399999952,0.399999952,0.399999952,0.399999952,
0.023486085,-0.003128446,-0.01154254,0.399999952,0.399999952,0.399999952,0.399999952,0.399999952,
0.023488541,-0.003108324,-0.011410942,0.399999952,0.399999952,0.399999952,0.399999952,0.399999952,
0.023488819,-0.003088941,-0.011302731,0.399999952,0.399999952,0.399999952,0.399999952,0.399999952,
0.023487743,-0.003078731,-0.011259551,0.399999952,0.399999952,0.399999952,0.399999952,0.399999952,
0.023486726,-0.00308304,-0.01129956,0.399999952,0.399999952,0.399999952,0.399999952,0.399999952,
0.023486438,-0.003101086,-0.011408174,0.399999952,0.399999952,0.399999952,0.399999952,0.399999952,
0.023486518,-0.003126142,-0.011543054,0.399999952,0.399999952,0.399999952,0.399999952,0.399999952,
0.023486385,-0.003148764,-0.011651839,0.399999952,0.399999952,0.399999952,0.399999952,0.399999952,
0.023485608,-0.003160562,-0.011693023,0.399999952,0.399999952,0.399999952,0.399999952,0.399999952,
0.02348426,-0.003157631,-0.011651955,0.399999952,0.399999952,0.399999952,0.399999952,0.399999952,
0.023483206,-0.003142369,-0.011545843,0.399999952,0.399999952,0.399999952,0.399999952,0.399999952,
0.023483162,-0.003121913,-0.011415743,0.399999952,0.399999952,0.399999952,0.399999952,0.399999952,
0.023484087,-0.003105097,-0.011311314,0.399999952,0.399999952,0.399999952,0.399999952,0.399999952,
0.023485771,-0.003099751,-0.011273863,0.399999952,0.399999952,0.399999952,0.399999952,0.399999952,
0.023487741,-0.003109423,-0.011320005,0.399999952,0.399999952,0.399999952,0.399999952,0.399999952,
0.023488519,-0.003130848,-0.01143287,0.399999952,0.399999952,0.399999952,0.399999952,0.399999952,
0.023485937,-0.003154784,-0.011568255,0.399999952,0.399999952,0.399999952,0.399999952,0.399999952,
0.02347882,-0.003170371,-0.011673182,0.399999952,0.399999952,0.399999952,0.399999952,0.399999952,
0.023468619,-0.003170574,-0.011707224,0.399999952,0.399999952,0.399999952,0.399999952,0.399999952,
0.02345883,-0.003155093,-0.011657731,0.399999952,0.399999952,0.399999952,0.399999952,0.399999952,
0.023452489,-0.003129277,-0.011543529,0.399999952,0.399999952,0.399999952,0.399999952,0.399999952,
0.023450441,-0.003101259,-0.011406948,0.399999952,0.399999952,0.399999952,0.399999952,0.399999952,
0.023452151,-0.003080015,-0.011299064,0.399999952,0.399999952,0.399999952,0.399999952,0.399999952,
0.023457181,-0.003073535,-0.011262234,0.399999952,0.399999952,0.399999952,0.399999952,0.399999952,
0.023464705,-0.003085231,-0.011313202,0.399999952,0.399999952,0.399999952,0.399999952,0.399999952,
0.023473321,-0.003112084,-0.011434724,0.399999952,0.399999952,0.399999952,0.399999952,0.399999952,
0.023482764,-0.003147269,-0.011582166,0.399999952,0.399999952,0.399999952,0.399999952,0.399999952,
0.023494171,-0.003183337,-0.011701347,0.399999952,0.399999952,0.399999952,0.399999952,0.399999952,
0.023508403,-0.003214023,-0.011748828,0.399999952,0.399999952,0.399999952,0.399999952,0.399999952,
0.023525304,-0.003236224,-0.011707383,0.399999952,0.399999952,0.399999952,0.399999952,0.399999952,
0.023544081,-0.00325151,-0.011590922,0.399999952,0.399999952,0.399999952,0.399999952,0.399999952,
0.023563081,-0.003264961,-0.011436992,0.399999952,0.399999952,0.399999952,0.399999952,0.399999952,
0.023578791,-0.003281499,-0.011291139,0.399999952,0.399999952,0.399999952,0.399999952,0.399999952,
0.023586294,-0.003302754,-0.011189941,0.399999952,0.399999952,0.399999952,0.399999952,0.399999952,
0.023581716,-0.003326356,-0.011148444,0.399999952,0.399999952,0.399999952,0.399999952,0.399999952,
0.023564026,-0.003346582,-0.011156217,0.399999952,0.399999952,0.399999952,0.399999952,0.399999952,
0.023534838,-0.003355551,-0.011183413,0.399999952,0.399999952,0.399999952,0.399999952,0.399999952,
0.023497327,-0.00334528,-0.011194284,0.399999952,0.399999952,0.399999952,0.399999952,0.399999952,
0.023455309,-0.003310432,-0.011162919,0.399999952,0.399999952,0.399999952,0.399999952,0.399999952,
0.0234129,-0.003251053,-0.011085334,0.399999952,0.399999952,0.399999952,0.399999952,0.399999952,
0.023374202,-0.003173581,-0.010982804,0.399999952,0.399999952,0.399999952,0.399999952,0.399999952,
0.023342507,-0.003089067,-0.010894741,0.399999952,0.399999952,0.399999952,0.399999952,0.399999952,
0.023320285,-0.003010557,-0.010864981,0.399999952,0.399999952,0.399999952,0.399999952,0.399999952,
0.02330981,-0.002950372,-0.010925912,0.399999952,0.399999952,0.399999952,0.399999952,0.399999952,
0.023312305,-0.002916019,-0.011083268,0.399999952,0.399999952,0.399999952,0.399999952,0.399999952,
0.02332643,-0.002906749,-0.011309191,0.399999952,0.399999952,0.399999952,0.399999952,0.399999952,
0.023349336,-0.002915048,-0.011550961,0.399999952,0.399999952,0.399999952,0.399999952,0.399999952,
0.023379419,-0.002932098,-0.011750916,0.399999952,0.399999952,0.399999952,0.399999952,0.399999952,
0.023416576,-0.002951723,-0.011866484,0.399999952,0.399999952,0.399999952,0.399999952,0.399999952,
0.023460142,-0.002971279,-0.01188369,0.399999952,0.399999952,0.399999952,0.399999952,0.399999952,
0.02350755,-0.002991247,-0.011820685,0.399999952,0.399999952,0.399999952,0.399999952,0.399999952,
0.023554778,-0.003014487,-0.011719817,0.399999952,0.399999952,0.399999952,0.399999952,0.399999952,
0.023597749,-0.003045152,-0.01163206,0.399999952,0.399999952,0.399999952,0.399999952,0.399999952,
0.023633162,-0.003086444,-0.011599483,0.399999952,0.399999952,0.399999952,0.399999952,0.399999952,
0.023658333,-0.003137536,-0.011639189,0.399999952,0.399999952,0.399999952,0.399999952,0.399999952,
0.023671016,-0.003191962,-0.011734996,0.399999952,0.399999952,0.399999952,0.399999952,0.399999952,
0.023670369,-0.003239641,-0.011844122,0.399999952,0.399999952,0.399999952,0.399999952,0.399999952,
0.023658153,-0.003271219,-0.011916039,0.399999952,0.399999952,0.399999952,0.399999952,0.399999952,
0.023637984,-0.003281128,-0.011913153,0.399999952,0.399999952,0.399999952,0.399999952,0.399999952,
0.023613682,-0.003268922,-0.011825528,0.399999952,0.399999952,0.399999952,0.399999952,0.399999952,
0.023588635,-0.003239728,-0.011674815,0.399999952,0.399999952,0.399999952,0.399999952,0.399999952,
0.02356546,-0.003202878,-0.011505885,0.399999952,0.399999952,0.399999952,0.399999952,0.399999952,
0.023545642,-0.003169039,-0.011370796,0.399999952,0.399999952,0.399999952,0.399999952,0.399999952,
0.023529674,-0.003147087,-0.011310832,0.399999952,0.399999952,0.399999952,0.399999952,0.399999952,
0.023517172,-0.003141031,-0.011340576,0.399999952,0.399999952,0.399999952,0.399999952,0.399999952,
0.023506929,-0.003148352,-0.011440964,0.399999952,0.399999952,0.399999952,0.399999952,0.399999952,
0.023497658,-0.003161501,-0.011566998,0.399999952,0.399999952,0.399999952,0.399999952,0.399999952,
0.023488679,-0.003171311,-0.011666211,0.399999952,0.399999952,0.399999952,0.399999952,0.399999952,
0.023479886,-0.003170374,-0.011698831,0.399999952,0.399999952,0.399999952,0.399999952,0.399999952,
0.023472056,-0.003156315,-0.011652351,0.399999952,0.399999952,0.399999952,0.399999952,0.399999952,
0.023466889,-0.003133197,-0.011545277,0.399999952,0.399999952,0.399999952,0.399999952,0.399999952,
0.023465417,-0.003109026,-0.01141883,0.399999952,0.399999952,0.399999952,0.399999952,0.399999952,
0.023467277,-0.003092393,-0.011321487,0.399999952,0.399999952,0.399999952,0.399999952,0.399999952,
0.023472163,-0.003090682,-0.011291805,0.399999952,0.399999952,0.399999952,0.399999952,0.399999952,
0.023480497,-0.003107941,-0.011343008,0.399999952,0.399999952,0.399999952,0.399999952,0.399999952,
0.023492079,-0.003142151,-0.011455921,0.399999952,0.399999952,0.399999952,0.399999952,0.399999952,
0.023504572,-0.003184303,-0.011586189,0.399999952,0.399999952,0.399999952,0.399999952,0.399999952,
0.023514235,-0.003221454,-0.011682552,0.399999952,0.399999952,0.399999952,0.399999952,0.399999952,
0.023518566,-0.003242799,-0.011707139,0.399999952,0.399999952,0.399999952,0.399999952,0.399999952,
0.023517687,-0.003244374,-0.011649826,0.399999952,0.399999952,0.399999952,0.399999952,0.399999952,
0.023513362,-0.003229609,-0.011531118,0.399999952,0.399999952,0.399999952,0.399999952,0.399999952,
0.02350739,-0.003206875,-0.011393525,0.399999952,0.399999952,0.399999952,0.399999952,0.399999952,
0.023500719,-0.003185966,-0.011286666,0.399999952,0.399999952,0.399999952,0.399999952,0.399999952,
0.023493756,-0.00317488,-0.01125013,0.399999952,0.399999952,0.399999952,0.399999952,0.399999952,
0.023487123,-0.003177466,-0.011297539,0.399999952,0.399999952,0.399999952,0.399999952,0.399999952,
0.02348102,-0.00319143,-0.011409308,0.399999952,0.399999952,0.399999952,0.399999952,0.399999952,
0.023474346,-0.003208383,-0.01154005,0.399999952,0.399999952,0.399999952,0.399999952,0.399999952,
0.023466141,-0.003218047,-0.011637454,0.399999952,0.399999952,0.399999952,0.399999952,0.399999952,
0.023457918,-0.003214319,-0.011663362,0.399999952,0.399999952,0.399999952,0.399999952,0.399999952,
0.023453442,-0.003198303,-0.011608259,0.399999952,0.399999952,0.399999952,0.399999952,0.399999952,
0.023455523,-0.003176215,-0.011493566,0.399999952,0.399999952,0.399999952,0.399999952,0.399999952,
0.02346348,-0.003155404,-0.011362313,0.399999952,0.399999952,0.399999952,0.399999952,0.399999952,
0.023474058,-0.003142231,-0.011263837,0.399999952,0.399999952,0.399999952,0.399999952,0.399999952,
0.023484139,-0.00314132,-0.011236737,0.399999952,0.399999952,0.399999952,0.399999952,0.399999952,
0.023492065,-0.003153975,-0.011293152,0.399999952,0.399999952,0.399999952,0.399999952,0.399999952,
0.023497089,-0.003176457,-0.011411914,0.399999952,0.399999952,0.399999952,0.399999952,0.399999952,
0.023499008,-0.003200829,-0.011546831,0.399999952,0.399999952,0.399999952,0.399999952,0.399999952,
0.023498371,-0.003218143,-0.011645862,0.399999952,0.399999952,0.399999952,0.399999952,0.399999952,
0.023496398,-0.003221955,-0.01167145,0.399999952,0.399999952,0.399999952,0.399999952,0.399999952,
0.023494576,-0.003210907,-0.011614552,0.399999952,0.399999952,0.399999952,0.399999952,0.399999952,
0.023494023,-0.003189194,-0.011497231,0.399999952,0.399999952,0.399999952,0.399999952,0.399999952,
0.023495021,-0.003164828,-0.011363309,0.399999952,0.399999952,0.399999952,0.399999952,0.399999952,
0.0234971,-0.003146841,-0.01126253,0.399999952,0.399999952,0.399999952,0.399999952,0.399999952,
0.023499464,-0.00314224,-0.011233423,0.399999952,0.399999952,0.399999952,0.399999952,0.399999952,
0.023501118,-0.003153123,-0.011287902,0.399999952,0.399999952,0.399999952,0.399999952,0.399999952,
0.0235008,-0.003175309,-0.011404464,0.399999952,0.399999952,0.399999952,0.399999952,0.399999952,
0.023497608,-0.003200066,-0.011536577,0.399999952,0.399999952,0.399999952,0.399999952,0.399999952,
0.023492169,-0.003218349,-0.011632389,0.399999952,0.399999952,0.399999952,0.399999952,0.399999952,
0.023486704,-0.003224665,-0.011655079,0.399999952,0.399999952,0.399999952,0.399999952,0.399999952,
0.023483484,-0.003218499,-0.011596067,0.399999952,0.399999952,0.399999952,0.399999952,0.399999952,
0.023483541,-0.003203921,-0.011477601,0.399999952,0.399999952,0.399999952,0.399999952,0.399999952,
0.023486507,-0.003188112,-0.011343972,0.399999952,0.399999952,0.399999952,0.399999952,0.399999952,
0.023490743,-0.003178625,-0.011245388,0.399999952,0.399999952,0.399999952,0.399999952,0.399999952,
0.023493459,-0.003179914,-0.011220098,0.399999952,0.399999952,0.399999952,0.399999952,0.399999952,
0.02349144,-0.003190975,-0.011279026,0.399999952,0.399999952,0.399999952,0.399999952,0.399999952,
0.023483135,-0.003206422,-0.011399796,0.399999952,0.399999952,0.399999952,0.399999952,0.399999952,
0.023470371,-0.003219915,-0.011535357,0.399999952,0.399999952,0.399999952,0.399999952,0.399999952,
0.023457356,-0.00322654,-0.011633264,0.399999952,0.399999952,0.399999952,0.399999952,0.399999952,
0.023448296,-0.003223895,-0.011656367,0.399999952,0.399999952,0.399999952,0.399999952,0.399999952,
0.023445731,-0.003212874,-0.011596635,0.399999952,0.399999952,0.399999952,0.399999952,0.399999952,
0.023449953,-0.003197642,-0.01147709,0.399999952,0.399999952,0.399999952,0.399999952,0.399999952,
0.023459417,-0.003184616,-0.01134229,0.399999952,0.399999952,0.399999952,0.399999952,0.399999952,
0.023471691,-0.00318069,-0.011242477,0.399999952,0.399999952,0.399999952,0.399999952,0.399999952,
0.023484316,-0.003190762,-0.011215928,0.399999952,0.399999952,0.399999952,0.399999952,0.399999952,
0.023495051,-0.003215084,-0.011273477,0.399999952,0.399999952,0.399999952,0.399999952,0.399999952,
0.02350193,-0.003248176,-0.011392502,0.399999952,0.399999952,0.399999952,0.399999952,0.399999952,
0.023503866,-0.003280683,-0.011525844,0.399999952,0.399999952,0.399999952,0.399999952,0.399999952,
0.023501338,-0.003303132,-0.011621347,0.399999952,0.399999952,0.399999952,0.399999952,0.399999952,
0.023496411,-0.003309725,-0.011642381,0.399999952,0.399999952,0.399999952,0.399999952,0.399999952,
0.023491971,-0.003300578,-0.011581577,0.399999952,0.399999952,0.399999952,0.399999952,0.399999952,
0.023490157,-0.003281017,-0.011462613,0.399999952,0.399999952,0.399999952,0.399999952,0.399999952,
0.023491224,-0.003258976,-0.011330078,0.399999952,0.399999952,0.399999952,0.399999952,0.399999952,
0.023494206,-0.003242768,-0.011233598,0.399999952,0.399999952,0.399999952,0.399999952,0.399999952,
0.023497883,-0.003238633,-0.011211002,0.399999952,0.399999952,0.399999952,0.399999952,0.399999952,
0.023500694,-0.003247711,-0.011273131,0.399999952,0.399999952,0.399999952,0.399999952,0.399999952,
0.023501255,-0.003265416,-0.011397391,0.399999952,0.399999952,0.399999952,0.399999952,0.399999952,
0.023499922,-0.003284435,-0.011536336,0.399999952,0.399999952,0.399999952,0.399999952,0.399999952,
0.02349896,-0.00329816,-0.011637339,0.399999952,0.399999952,0.399999952,0.399999952,0.399999952,
0.023500804,-0.003302561,-0.011663412,0.399999952,0.399999952,0.399999952,0.399999952,0.399999952,
0.02350622,-0.003296867,-0.01160696,0.399999952,0.399999952,0.399999952,0.399999952,0.399999952,
0.023514351,-0.003284129,-0.011491604,0.399999952,0.399999952,0.399999952,0.399999952,0.399999952,
0.023524439,-0.00327163,-0.011362429,0.399999952,0.399999952,0.399999952,0.399999952,0.399999952,
0.023535865,-0.003268307,-0.011269496,0.399999952,0.399999952,0.399999952,0.399999952,0.399999952,
0.023546806,-0.003279924,-0.011249636,0.399999952,0.399999952,0.399999952,0.399999952,0.399999952,
0.023554526,-0.003306226,-0.011311646,0.399999952,0.399999952,0.399999952,0.399999952,0.399999952,
0.023556896,-0.003341295,-0.01143185,0.399999952,0.399999952,0.399999952,0.399999952,0.399999952,
0.023553433,-0.003375971,-0.011563598,0.399999952,0.399999952,0.399999952,0.399999952,0.399999952,
0.023545188,-0.003400925,-0.011655996,0.399999952,0.399999952,0.399999952,0.399999952,0.399999952,
0.023534251,-0.003409972,-0.011673818,0.399999952,0.399999952,0.399999952,0.399999952,0.399999952,
0.023523332,-0.003402661,-0.011611106,0.399999952,0.399999952,0.399999952,0.399999952,0.399999952,
0.023514729,-0.003384174,-0.011492334,0.399999952,0.399999952,0.399999952,0.399999952,0.399999952,
0.023509263,-0.003362851,-0.011361955,0.399999952,0.399999952,0.399999952,0.399999952,0.399999952,
0.023506505,-0.003347525,-0.011268865,0.399999952,0.399999952,0.399999952,0.399999952,0.399999952,
0.023505599,-0.003344917,-0.011249555,0.399999952,0.399999952,0.399999952,0.399999952,0.399999952,
0.023505492,-0.003356882,-0.011312982,0.399999952,0.399999952,0.399999952,0.399999952,0.399999952,
0.023504899,-0.00337922,-0.011435074,0.399999952,0.399999952,0.399999952,0.399999952,0.399999952,
0.023502375,-0.003402973,-0.011568113,0.399999952,0.399999952,0.399999952,0.399999952,0.399999952,
0.023496718,-0.00341771,-0.011660346,0.399999952,0.399999952,0.399999952,0.399999952,0.399999952,
0.023487804,-0.003415837,-0.011676447,0.399999952,0.399999952,0.399999952,0.399999952,0.399999952,
0.023477075,-0.003396044,-0.011610706,0.399999952,0.399999952,0.399999952,0.399999952,0.399999952,
0.023467272,-0.003364184,-0.011488017,0.399999952,0.399999952,0.399999952,0.399999952,0.399999952,
0.023461004,-0.003330731,-0.011353473,0.399999952,0.399999952,0.399999952,0.399999952,0.399999952,
0.023458875,-0.003305992,-0.011256077,0.399999952,0.399999952,0.399999952,0.399999952,0.399999952,
0.023459677,-0.003296612,-0.011231445,0.399999952,0.399999952,0.399999952,0.399999952,0.399999952,
0.023461963,-0.00330412,-0.011287731,0.399999952,0.399999952,0.399999952,0.399999952,0.399999952,
0.02346429,-0.003324118,-0.011401122,0.399999952,0.399999952,0.399999952,0.399999952,0.399999952,
0.023465046,-0.003347351,-0.01152484,0.399999952,0.399999952,0.399999952,0.399999952,0.399999952,
0.023463377,-0.003363592,-0.01160804,0.399999952,0.399999952,0.399999952,0.399999952,0.399999952,
0.023460079,-0.003366169,-0.011616136,0.399999952,0.399999952,0.399999952,0.399999952,0.399999952,
0.023457113,-0.003354365,-0.011544153,0.399999952,0.399999952,0.399999952,0.399999952,0.399999952,
0.023456304,-0.003332965,-0.011417771,0.399999952,0.399999952,0.399999952,0.399999952,0.399999952,
0.023458051,-0.003309646,-0.011282552,0.399999952,0.399999952,0.399999952,0.399999952,0.399999952,
0.023460904,-0.003291718,-0.011187478,0.399999952,0.399999952,0.399999952,0.399999952,0.399999952,
0.02346296,-0.003284094,-0.011168103,0.399999952,0.399999952,0.399999952,0.399999952,0.399999952,
0.023463262,-0.00328792,-0.011232235,0.399999952,0.399999952,0.399999952,0.399999952,0.399999952,
0.023461289,-0.003299177,-0.011354667,0.399999952,0.399999952,0.399999952,0.399999952,0.399999952,
0.023456291,-0.003309373,-0.011486819,0.399999952,0.399999952,0.399999952,0.399999952,0.399999952,
0.023448182,-0.00330939,-0.01157688,0.399999952,0.399999952,0.399999952,0.399999952,0.399999952,
0.02343896,-0.003294481,-0.011590359,0.399999952,0.399999952,0.399999952,0.399999952,0.399999952,
0.023432367,-0.003266832,-0.011523243,0.399999952,0.399999952,0.399999952,0.399999952,0.399999952,
0.023431357,-0.003233845,-0.011402496,0.399999952,0.399999952,0.399999952,0.399999952,0.399999952,
0.0234359,-0.003204233,-0.011274389,0.399999952,0.399999952,0.399999952,0.399999952,0.399999952,
0.023442726,-0.003184424,-0.011187569,0.399999952,0.399999952,0.399999952,0.399999952,0.399999952,
0.023446919,-0.003176351,-0.011176265,0.399999952,0.399999952,0.399999952,0.399999952,0.399999952,
0.023444889,-0.00317761,-0.011246634,0.399999952,0.399999952,0.399999952,0.399999952,0.399999952,
0.023436861,-0.003183628,-0.011372557,0.399999952,0.399999952,0.399999952,0.399999952,0.399999952,
0.023426679,-0.003189651,-0.011505735,0.399999952,0.399999952,0.399999952,0.399999952,0.399999952,
0.023419214,-0.003191557,-0.011595343,0.399999952,0.399999952,0.399999952,0.399999952,0.399999952,
0.023418079,-0.00318688,-0.011607791,0.399999952,0.399999952,0.399999952,0.399999952,0.399999952,
0.023424631,-0.003176045,-0.011539208,0.399999952,0.399999952,0.399999952,0.399999952,0.399999952,
0.023437441,-0.003162078,-0.011415816,0.399999952,0.399999952,0.399999952,0.399999952,0.399999952,
0.023452998,-0.003149604,-0.011283366,0.399999952,0.399999952,0.399999952,0.399999952,0.399999952,
0.023467599,-0.00314389,-0.011191383,0.399999952,0.399999952,0.399999952,0.399999952,0.399999952,
0.023478546,-0.003148838,-0.011175883,0.399999952,0.399999952,0.399999952,0.399999952,0.399999952,
0.023484373,-0.003164592,-0.01124448,0.399999952,0.399999952,0.399999952,0.399999952,0.399999952,
0.023484794,-0.003186687,-0.011371717,0.399999952,0.399999952,0.399999952,0.399999952,0.399999952,
0.023480641,-0.003207505,-0.011509212,0.399999952,0.399999952,0.399999952,0.399999952,0.399999952,
0.023473625,-0.003219212,-0.011605493,0.399999952,0.399999952,0.399999952,0.399999952,0.399999952,
0.023465677,-0.003216654,-0.011625917,0.399999952,0.399999952,0.399999952,0.399999952,0.399999952,
0.023458452,-0.003199398,-0.011565362,0.399999952,0.399999952,0.399999952,0.399999952,0.399999952,
0.023453071,-0.003172042,-0.011449237,0.399999952,0.399999952,0.399999952,0.399999952,0.399999952,
0.023449878,-0.003142538,-0.01132312,0.399999952,0.399999952,0.399999952,0.399999952,0.399999952,
0.023448724,-0.003119727,-0.011236482,0.399999952,0.399999952,0.399999952,0.399999952,0.399999952,
0.023449367,-0.003110507,-0.011224951,0.399999952,0.399999952,0.399999952,0.399999952,0.399999952,
0.02345105,-0.00311661,-0.011295239,0.399999952,0.399999952,0.399999952,0.399999952,0.399999952,
0.02345219,-0.003133164,-0.011420902,0.399999952,0.399999952,0.399999952,0.399999952,0.399999952,
0.023451274,-0.003150844,-0.011553069,0.399999952,0.399999952,0.399999952,0.399999952,0.399999952,
0.023448147,-0.003160219,-0.01164043,0.399999952,0.399999952,0.399999952,0.399999952,0.399999952,
0.02344491,-0.003156376,-0.01164968,0.399999952,0.399999952,0.399999952,0.399999952,0.399999952,
0.023445011,-0.003140951,-0.011578015,0.399999952,0.399999952,0.399999952,0.399999952,0.399999952,
0.023450375,-0.00311993,-0.01145276,0.399999952,0.399999952,0.399999952,0.399999952,0.399999952,
0.023460265,-0.003100776,-0.011320401,0.399999952,0.399999952,0.399999952,0.399999952,0.399999952,
0.023472677,-0.003090738,-0.01123037,0.399999952,0.399999952,0.399999952,0.399999952,0.399999952,
0.023485115,-0.003094182,-0.011217185,0.399999952,0.399999952,0.399999952,0.399999952,0.399999952,
0.023494665,-0.003109874,-0.011285836,0.399999952,0.399999952,0.399999952,0.399999952,0.399999952,
0.023498978,-0.003131206,-0.011408658,0.399999952,0.399999952,0.399999952,0.399999952,0.399999952,
0.023497638,-0.003149249,-0.011537076,0.399999952,0.399999952,0.399999952,0.399999952,0.399999952,
0.023492796,-0.003156686,-0.011621561,0.399999952,0.399999952,0.399999952,0.399999952,0.399999952,
0.023488096,-0.003150402,-0.011630528,0.399999952,0.399999952,0.399999952,0.399999952,0.399999952,
0.023486266,-0.00313168,-0.011561657,0.399999952,0.399999952,0.399999952,0.399999952,0.399999952,
0.023488357,-0.003105878,-0.011441836,0.399999952,0.399999952,0.399999952,0.399999952,0.399999952,
0.023494773,-0.003081923,-0.011316437,0.399999952,0.399999952,0.399999952,0.399999952,0.399999952,
0.023505331,-0.003069473,-0.011233239,0.399999952,0.399999952,0.399999952,0.399999952,0.399999952,
0.023518605,-0.003074656,-0.011225436,0.399999952,0.399999952,0.399999952,0.399999952,0.399999952,
0.023531883,-0.003097003,-0.0112976,0.399999952,0.399999952,0.399999952,0.399999952,0.399999952,
0.023541796,-0.003129154,-0.011422104,0.399999952,0.399999952,0.399999952,0.399999952,0.399999952,
0.023545964,-0.003160042,-0.01155037,0.399999952,0.399999952,0.399999952,0.399999952,0.399999952,
0.023544513,-0.003179739,-0.011632886,0.399999952,0.399999952,0.399999952,0.399999952,0.399999952,
0.023539827,-0.003183097,-0.011638297,0.399999952,0.399999952,0.399999952,0.399999952,0.399999952,
0.023534961,-0.003170981,-0.011564789,0.399999952,0.399999952,0.399999952,0.399999952,0.399999952,
0.023532183,-0.003149378,-0.011440076,0.399999952,0.399999952,0.399999952,0.399999952,0.399999952,
0.023532228,-0.003127012,-0.011310619,0.399999952,0.399999952,0.399999952,0.399999952,0.399999952,
0.02353435,-0.003112358,-0.011225125,0.399999952,0.399999952,0.399999952,0.399999952,0.399999952,
0.023537202,-0.003111083,-0.011217047,0.399999952,0.399999952,0.399999952,0.399999952,0.399999952,
0.023539391,-0.003123945,-0.011290458,0.399999952,0.399999952,0.399999952,0.399999952,0.399999952,
0.023539312,-0.003145778,-0.011416866,0.399999952,0.399999952,0.399999952,0.399999952,0.399999952,
0.023535769,-0.003167422,-0.011546821,0.399999952,0.399999952,0.399999952,0.399999952,0.399999952,
0.023529103,-0.003179955,-0.011629981,0.399999952,0.399999952,0.399999952,0.399999952,0.399999952,
0.023521072,-0.003178307,-0.011634597,0.399999952,0.399999952,0.399999952,0.399999952,0.399999952,
0.023513729,-0.003162848,-0.01155964,0.399999952,0.399999952,0.399999952,0.399999952,0.399999952,
0.023508332,-0.00313879,-0.011434226,0.399999952,0.399999952,0.399999952,0.399999952,0.399999952,
0.023504837,-0.003113996,-0.011305286,0.399999952,0.399999952,0.399999952,0.399999952,0.399999952,
0.023502397,-0.003096542,-0.01122091,0.399999952,0.399999952,0.399999952,0.399999952,0.399999952,
0.023500363,-0.003092435,-0.011214149,0.399999952,0.399999952,0.399999952,0.399999952,0.399999952,
0.023498408,-0.003103121,-0.011289517,0.399999952,0.399999952,0.399999952,0.399999952,0.399999952,
0.023495647,-0.003123787,-0.01141876,0.399999952,0.399999952,0.399999952,0.399999952,0.399999952,
0.023490624,-0.003144762,-0.011551465,0.399999952,0.399999952,0.399999952,0.399999952,0.399999952,
0.023483034,-0.003156336,-0.011635922,0.399999952,0.399999952,0.399999952,0.399999952,0.399999952,
0.023474891,-0.003153674,-0.01163987,0.399999952,0.399999952,0.399999952,0.399999952,0.399999952,
0.023469157,-0.003138213,-0.011562548,0.399999952,0.399999952,0.399999952,0.399999952,0.399999952,
0.023467487,-0.003115844,-0.011433383,0.399999952,0.399999952,0.399999952,0.399999952,0.399999952,
0.023469816,-0.003094729,-0.011299916,0.399999952,0.399999952,0.399999952,0.399999952,0.399999952,
0.023475516,-0.003083496,-0.011211702,0.399999952,0.399999952,0.399999952,0.399999952,0.399999952,
0.023483702,-0.003088222,-0.01120288,0.399999952,0.399999952,0.399999952,0.399999952,0.399999952,
0.023492498,-0.00310891,-0.011277043,0.399999952,0.399999952,0.399999952,0.399999952,0.399999952,
0.023499192,-0.003138753,-0.011404254,0.399999952,0.399999952,0.399999952,0.399999952,0.399999952,
0.023501774,-0.003167273,-0.011534103,0.399999952,0.399999952,0.399999952,0.399999952,0.399999952,
0.023500394,-0.003185138,-0.011616695,0.399999952,0.399999952,0.399999952,0.399999952,0.399999952,
0.023497107,-0.003187648,-0.011621511,0.399999952,0.399999952,0.399999952,0.399999952,0.399999952,
0.02349414,-0.003175552,-0.011548044,0.399999952,0.399999952,0.399999952,0.399999952,0.399999952,
0.023492557,-0.00315403,-0.01142478,0.399999952,0.399999952,0.399999952,0.399999952,0.399999952,
0.023492116,-0.003130808,-0.011297855,0.399999952,0.399999952,0.399999952,0.399999952,0.399999952,
0.02349202,-0.003113997,-0.011215124,0.399999952,0.399999952,0.399999952,0.399999952,0.399999952,
0.023491738,-0.003109671,-0.011209539,0.399999952,0.399999952,0.399999952,0.399999952,0.399999952,
0.02349064,-0.003118894,-0.01128511,0.399999952,0.399999952,0.399999952,0.399999952,0.399999952,
0.023487386,-0.003136243,-0.011413193,0.399999952,0.399999952,0.399999952,0.399999952,0.399999952,
0.023480961,-0.003152321,-0.011543953,0.399999952,0.399999952,0.399999952,0.399999952,0.399999952,
0.023472313,-0.003158693,-0.011627054,0.399999952,0.399999952,0.399999952,0.399999952,0.399999952,
0.023464251,-0.003151582,-0.011631309,0.399999952,0.399999952,0.399999952,0.399999952,0.399999952,
0.023459275,-0.003132288,-0.011556082,0.399999952,0.399999952,0.399999952,0.399999952,0.399999952,
0.023457662,-0.003105511,-0.011430637,0.399999952,0.399999952,0.399999952,0.399999952,0.399999952,
0.023458351,-0.003078418,-0.011302472,0.399999952,0.399999952,0.399999952,0.399999952,0.399999952,
0.02346127,-0.003060161,-0.011220466,0.399999952,0.399999952,0.399999952,0.399999952,0.399999952,
0.023467137,-0.003058519,-0.011217335,0.399999952,0.399999952,0.399999952,0.399999952,0.399999952,
0.023475225,-0.003074908,-0.011295579,0.399999952,0.399999952,0.399999952,0.399999952,0.399999952,
0.023483186,-0.003103203,-0.011424853,0.399999952,0.399999952,0.399999952,0.399999952,0.399999952,
0.023489066,-0.003133242,-0.011554492,0.399999952,0.399999952,0.399999952,0.399999952,0.399999952,
0.023492641,-0.003155481,-0.011634604,0.399999952,0.399999952,0.399999952,0.399999952,0.399999952,
0.023495073,-0.003164407,-0.011635362,0.399999952,0.399999952,0.399999952,0.399999952,0.399999952,
0.023497753,-0.003159934,-0.011557564,0.399999952,0.399999952,0.399999952,0.399999952,0.399999952,
0.023501435,-0.003146897,-0.011431371,0.399999952,0.399999952,0.399999952,0.399999952,0.399999952,
0.023505922,-0.003133047,-0.011304468,0.399999952,0.399999952,0.399999952,0.399999952,0.399999952,
0.023510222,-0.003126191,-0.01122516,0.399999952,0.399999952,0.399999952,0.399999952,0.399999952,
0.023513028,-0.003131235,-0.011225126,0.399999952,0.399999952,0.399999952,0.399999952,0.399999952,
0.023512754,-0.003147609,-0.01130596,0.399999952,0.399999952,0.399999952,0.399999952,0.399999952,
0.023507724,-0.003168843,-0.011436783,0.399999952,0.399999952,0.399999952,0.399999952,0.399999952,
0.0234975,-0.003185652,-0.011566717,0.399999952,0.399999952,0.399999952,0.399999952,0.399999952,
0.02348367,-0.003190083,-0.011645801,0.399999952,0.399999952,0.399999952,0.399999952,0.399999952,
0.023468837,-0.003178138,-0.011644179,0.399999952,0.399999952,0.399999952,0.399999952,0.399999952,
0.023455531,-0.00315114,-0.011562928,0.399999952,0.399999952,0.399999952,0.399999952,0.399999952,
0.023446033,-0.003115933,-0.011433045,0.399999952,0.399999952,0.399999952,0.399999952,0.399999952,
0.023442479,-0.003083399,-0.011303381,0.399999952,0.399999952,0.399999952,0.399999952,0.399999952,
0.023446236,-0.003064955,-0.011223046,0.399999952,0.399999952,0.399999952,0.399999952,0.399999952,
0.023456129,-0.003067106,-0.011223386,0.399999952,0.399999952,0.399999952,0.399999952,0.399999952,
0.023467558,-0.003087299,-0.011304662,0.399999952,0.399999952,0.399999952,0.399999952,0.399999952,
0.023475312,-0.003115756,-0.011434993,0.399999952,0.399999952,0.399999952,0.399999952,0.399999952,
0.023477513,-0.003141466,-0.011563651,0.399999952,0.399999952,0.399999952,0.399999952,0.399999952,
0.023475905,-0.003156349,-0.011641307,0.399999952,0.399999952,0.399999952,0.399999952,0.399999952,
0.023473836,-0.003157126,-0.011638576,0.399999952,0.399999952,0.399999952,0.399999952,0.399999952,
0.023474518,-0.003146041,-0.011556844,0.399999952,0.399999952,0.399999952,0.399999952,0.399999952,
0.023479289,-0.00312927,-0.01142694,0.399999952,0.399999952,0.399999952,0.399999952,0.399999952,
0.023487067,-0.003114374,-0.011296827,0.399999952,0.399999952,0.399999952,0.399999952,0.399999952,
0.02349549,-0.003108253,-0.011214795,0.399999952,0.399999952,0.399999952,0.399999952,0.399999952,
0.023502102,-0.003114828,-0.011212527,0.399999952,0.399999952,0.399999952,0.399999952,0.399999952,
0.023504909,-0.003132986,-0.011291776,0.399999952,0.399999952,0.399999952,0.399999952,0.399999952,
0.023502696,-0.003156434,-0.011422183,0.399999952,0.399999952,0.399999952,0.399999952,0.399999952,
0.023495359,-0.003175973,-0.011553423,0.399999952,0.399999952,0.399999952,0.399999952,0.399999952,
0.023484006,-0.003182993,-0.011635342,0.399999952,0.399999952,0.399999952,0.399999952,0.399999952,
0.023470909,-0.00317304,-0.011637378,0.399999952,0.399999952,0.399999952,0.399999952,0.399999952,
0.023459451,-0.003148329,-0.011560276,0.399999952,0.399999952,0.399999952,0.399999952,0.399999952,
0.023452869,-0.003116928,-0.011434774,0.399999952,0.399999952,0.399999952,0.399999952,0.399999952,
0.023451964,-0.003088573,-0.011308664,0.399999952,0.399999952,0.399999952,0.399999952,0.399999952,
0.023454777,-0.003070913,-0.01122969,0.399999952,0.399999952,0.399999952,0.399999952,0.399999952,
0.023458701,-0.003067937,-0.01122891,0.399999952,0.399999952,0.399999952,0.399999952,0.399999952,
0.023462206,-0.003079255,-0.011307563,0.399999952,0.399999952,0.399999952,0.399999952,0.399999952,
0.023464984,-0.003100071,-0.011434768,0.399999952,0.399999952,0.399999952,0.399999952,0.399999952,
0.023467328,-0.003122508,-0.011560216,0.399999952,0.399999952,0.399999952,0.399999952,0.399999952,
0.02346976,-0.003138415,-0.011635289,0.399999952,0.399999952,0.399999952,0.399999952,0.399999952,
0.023473463,-0.003143221,-0.011632301,0.399999952,0.399999952,0.399999952,0.399999952,0.399999952,
0.023480265,-0.003138291,-0.011554461,0.399999952,0.399999952,0.399999952,0.399999952,0.399999952,
0.023490876,-0.003129308,-0.011432892,0.399999952,0.399999952,0.399999952,0.399999952,0.399999952,
0.023503245,-0.003122499,-0.011313759,0.399999952,0.399999952,0.399999952,0.399999952,0.399999952,
0.023513716,-0.00312252,-0.011242426,0.399999952,0.399999952,0.399999952,0.399999952,0.399999952,
0.02351959,-0.003131778,-0.011247637,0.399999952,0.399999952,0.399999952,0.399999952,0.399999952,
0.023520116,-0.003149321,-0.011329205,0.399999952,0.399999952,0.399999952,0.399999952,0.399999952,
0.023516079,-0.003170377,-0.011456562,0.399999952,0.399999952,0.399999952,0.399999952,0.399999952,
0.02350919,-0.003187736,-0.011580595,0.399999952,0.399999952,0.399999952,0.399999952,0.399999952,
0.023501755,-0.003194663,-0.011653355,0.399999952,0.399999952,0.399999952,0.399999952,0.399999952,
0.023496536,-0.00318824,-0.011647343,0.399999952,0.399999952,0.399999952,0.399999952,0.399999952,
0.023495771,-0.00317069,-0.011565854,0.399999952,0.399999952,0.399999952,0.399999952,0.399999952,
0.023499273,-0.003147393,-0.011439843,0.399999952,0.399999952,0.399999952,0.399999952,0.399999952,
0.023504283,-0.003124465,-0.01131559,0.399999952,0.399999952,0.399999952,0.399999952,0.399999952,
0.02350796,-0.003108049,-0.011239546,0.399999952,0.399999952,0.399999952,0.399999952,0.399999952,
0.023508934,-0.003102672,-0.011241747,0.399999952,0.399999952,0.399999952,0.399999952,0.399999952,
0.023506592,-0.003108239,-0.011322032,0.399999952,0.399999952,0.399999952,0.399999952,0.399999952,
0.023500952,-0.003119642,-0.011448622,0.399999952,0.399999952,0.399999952,0.399999952,0.399999952,
0.023493612,-0.003129761,-0.011571671,0.399999952,0.399999952,0.399999952,0.399999952,0.399999952,
0.023487291,-0.003132446,-0.011643575,0.399999952,0.399999952,0.399999952,0.399999952,0.399999952,
0.023484213,-0.003124313,-0.01163689,0.399999952,0.399999952,0.399999952,0.399999952,0.399999952,
0.023485728,-0.003106512,-0.011554345,0.399999952,0.399999952,0.399999952,0.399999952,0.399999952,
0.023492613,-0.003085143,-0.011427167,0.399999952,0.399999952,0.399999952,0.399999952,0.399999952,
0.023504464,-0.003068779,-0.011302722,0.399999952,0.399999952,0.399999952,0.399999952,0.399999952,
0.023519319,-0.003064929,-0.011227596,0.399999952,0.399999952,0.399999952,0.399999952,0.399999952,
0.023534617,-0.003077465,-0.011230899,0.399999952,0.399999952,0.399999952,0.399999952,0.399999952,
0.023547945,-0.00310482,-0.011311787,0.399999952,0.399999952,0.399999952,0.399999952,0.399999952,
0.023556919,-0.003139508,-0.011438052,0.399999952,0.399999952,0.399999952,0.399999952,0.399999952,
0.023559846,-0.003170688,-0.011558975,0.399999952,0.399999952,0.399999952,0.399999952,0.399999952,
0.02355685,-0.003188679,-0.011625954,0.399999952,0.399999952,0.399999952,0.399999952,0.399999952,
0.023550018,-0.003188784,-0.011611607,0.399999952,0.399999952,0.399999952,0.399999952,0.399999952,
0.023542562,-0.003172998,-0.011520202,0.399999952,0.399999952,0.399999952,0.399999952,0.399999952,
0.023536805,-0.003148201,-0.01138474,0.399999952,0.399999952,0.399999952,0.399999952,0.399999952,
0.023532543,-0.003122452,-0.01125356,0.399999952,0.399999952,0.399999952,0.399999952,0.399999952,
0.023527909,-0.003102565,-0.011173807,0.399999952,0.399999952,0.399999952,0.399999952,0.399999952,
0.023521235,-0.003092555,-0.0111748,0.399999952,0.399999952,0.399999952,0.399999952,0.399999952,
0.023512372,-0.003092774,-0.011255069,0.399999952,0.399999952,0.399999952,0.399999952,0.399999952,
0.023503194,-0.00310055,-0.011381344,0.399999952,0.399999952,0.399999952,0.399999952,0.399999952,
0.023496634,-0.003111325,-0.011502288,0.399999952,0.399999952,0.399999952,0.399999952,0.399999952,
0.023494683,-0.003119571,-0.011569476,0.399999952,0.399999952,0.399999952,0.399999952,0.399999952,
0.023497513,-0.003120749,-0.011555916,0.399999952,0.399999952,0.399999952,0.399999952,0.399999952,
0.023504487,-0.003114296,-0.011465622,0.399999952,0.399999952,0.399999952,0.399999952,0.399999952,
0.02351443,-0.003104091,-0.011330831,0.399999952,0.399999952,0.399999952,0.399999952,0.399999952,
0.023525003,-0.003095993,-0.01119932,0.399999952,0.399999952,0.399999952,0.399999952,0.399999952,
0.023533814,-0.003095881,-0.011118047,0.399999952,0.399999952,0.399999952,0.399999952,0.399999952,
0.023539743,-0.003107824,-0.011116367,0.399999952,0.399999952,0.399999952,0.399999952,0.399999952,
0.023542356,-0.003131337,-0.01119302,0.399999952,0.399999952,0.399999952,0.399999952,0.399999952,
0.023541364,-0.003160657,-0.011315308,0.399999952,0.399999952,0.399999952,0.399999952,0.399999952,
0.023537127,-0.003187176,-0.011432883,0.399999952,0.399999952,0.399999952,0.399999952,0.399999952,
0.023530892,-0.003202989,-0.011498519,0.399999952,0.399999952,0.399999952,0.399999952,0.399999952,
0.023524452,-0.003204035,-0.011486525,0.399999952,0.399999952,0.399999952,0.399999952,0.399999952,
0.023519488,-0.003191645,-0.011401869,0.399999952,0.399999952,0.399999952,0.399999952,0.399999952,
0.023516954,-0.003171926,-0.011277019,0.399999952,0.399999952,0.399999952,0.399999952,0.399999952,
0.023516894,-0.003153629,-0.011159597,0.399999952,0.399999952,0.399999952,0.399999952,0.399999952,
0.023518442,-0.003145009,-0.011096112,0.399999952,0.399999952,0.399999952,0.399999952,0.399999952,
0.023519825,-0.003150297,-0.011114712,0.399999952,0.399999952,0.399999952,0.399999952,0.399999952,
0.023518768,-0.00316756,-0.011212121,0.399999952,0.399999952,0.399999952,0.399999952,0.399999952,
0.023513692,-0.003189702,-0.01135341,0.399999952,0.399999952,0.399999952,0.399999952,0.399999952,
0.023504625,-0.003207565,-0.011486646,0.399999952,0.399999952,0.399999952,0.399999952,0.399999952,
0.023492763,-0.003212947,-0.011564085,0.399999952,0.399999952,0.399999952,0.399999952,0.399999952,
0.023479747,-0.003201394,-0.011560272,0.399999952,0.399999952,0.399999952,0.399999952,0.399999952,
0.023467212,-0.003174001,-0.011480811,0.399999952,0.399999952,0.399999952,0.399999952,0.399999952,
0.023456217,-0.003136809,-0.011358996,0.399999952,0.399999952,0.399999952,0.399999952,0.399999952,
0.023447547,-0.003099122,-0.011243237,0.399999952,0.399999952,0.399999952,0.399999952,0.399999952,
0.023442586,-0.003071497,-0.01118062,0.399999952,0.399999952,0.399999952,0.399999952,0.399999952,
0.02344229,-0.003061489,-0.011199501,0.399999952,0.399999952,0.399999952,0.399999952,0.399999952,
0.023445604,-0.003069425,-0.011296691,0.399999952,0.399999952,0.399999952,0.399999952,0.399999952,
0.023450761,-0.003089219,-0.011437813,0.399999952,0.399999952,0.399999952,0.399999952,0.399999952,
0.023457513,-0.003112702,-0.011571582,0.399999952,0.399999952,0.399999952,0.399999952,0.399999952,
0.02346655,-0.003132483,-0.011650034,0.399999952,0.399999952,0.399999952,0.399999952,0.399999952,
0.023477426,-0.003143058,-0.011646517,0.399999952,0.399999952,0.399999952,0.399999952,0.399999952,
0.023488394,-0.003142434,-0.011565267,0.399999952,0.399999952,0.399999952,0.399999952,0.399999952,
0.023497838,-0.003133586,-0.011439199,0.399999952,0.399999952,0.399999952,0.399999952,0.399999952,
0.023504909,-0.003123453,-0.011317402,0.399999952,0.399999952,0.399999952,0.399999952,0.399999952,
0.023509135,-0.003119667,-0.011247478,0.399999952,0.399999952,0.399999952,0.399999952,0.399999952,
0.023510225,-0.003127028,-0.011257873,0.399999952,0.399999952,0.399999952,0.399999952,0.399999952,
0.023507998,-0.003145111,-0.011345605,0.399999952,0.399999952,0.399999952,0.399999952,0.399999952,
0.023502306,-0.003168047,-0.011476371,0.399999952,0.399999952,0.399999952,0.399999952,0.399999952,
0.023493615,-0.003187194,-0.011599005,0.399999952,0.399999952,0.399999952,0.399999952,0.399999952,
0.02348356,-0.003195124,-0.01166666,0.399999952,0.399999952,0.399999952,0.399999952,0.399999952,
0.023474378,-0.003188492,-0.011654622,0.399999952,0.399999952,0.399999952,0.399999952,0.399999952,
0.023467994,-0.003169215,-0.011568745,0.399999952,0.399999952,0.399999952,0.399999952,0.399999952,
0.023465506,-0.003143885,-0.011442306,0.399999952,0.399999952,0.399999952,0.399999952,0.399999952,
0.023466843,-0.003121431,-0.011323533,0.399999952,0.399999952,0.399999952,0.399999952,0.399999952,
0.023470677,-0.003109799,-0.011258846,0.399999952,0.399999952,0.399999952,0.399999952,0.399999952,
0.023474823,-0.003112809,-0.011275558,0.399999952,0.399999952,0.399999952,0.399999952,0.399999952,
0.023476796,-0.003128227,-0.011369326,0.399999952,0.399999952,0.399999952,0.399999952,0.399999952,
0.023474692,-0.003148489,-0.011504473,0.399999952,0.399999952,0.399999952,0.399999952,0.399999952,
0.023468751,-0.00316459,-0.01162907,0.399999952,0.399999952,0.399999952,0.399999952,0.399999952,
0.02346171,-0.003170213,-0.011696475,0.399999952,0.399999952,0.399999952,0.399999952,0.399999952,
0.023456822,-0.003163342,-0.011683115,0.399999952,0.399999952,0.399999952,0.399999952,0.399999952,
0.023455824,-0.003146111,-0.011596315,0.399999952,0.399999952,0.399999952,0.399999952,0.399999952,
0.023458575,-0.003124047,-0.011470198,0.399999952,0.399999952,0.399999952,0.399999952,0.399999952,
0.023463871,-0.003104732,-0.011352766,0.399999952,0.399999952,0.399999952,0.399999952,0.399999952,
0.023470372,-0.003095608,-0.011289439,0.399999952,0.399999952,0.399999952,0.399999952,0.399999952,
0.023476872,-0.003100948,-0.011306373,0.399999952,0.399999952,0.399999952,0.399999952,0.399999952,
0.023482164,-0.003119481,-0.011398474,0.399999952,0.399999952,0.399999952,0.399999952,0.399999952,
0.023485085,-0.003144401,-0.011529843,0.399999952,0.399999952,0.399999952,0.399999952,0.399999952,
0.023484986,-0.003165952,-0.011648411,0.399999952,0.399999952,0.399999952,0.399999952,0.399999952,
0.023482488,-0.0031756,-0.011707326,0.399999952,0.399999952,0.399999952,0.399999952,0.399999952,
0.023479632,-0.003169727,-0.011683243,0.399999952,0.399999952,0.399999952,0.399999952,0.399999952,
0.023479038,-0.003151045,-0.011584517,0.399999952,0.399999952,0.399999952,0.399999952,0.399999952,
0.023482771,-0.003127432,-0.011446943,0.399999952,0.399999952,0.399999952,0.399999952,0.399999952,
0.023491145,-0.003108572,-0.011320262,0.399999952,0.399999952,0.399999952,0.399999952,0.399999952,
0.023502242,-0.003101999,-0.011251031,0.399999952,0.399999952,0.399999952,0.399999952,0.399999952,
0.023513059,-0.003110554,-0.011265904,0.399999952,0.399999952,0.399999952,0.399999952,0.399999952,
0.023520946,-0.00313151,-0.011359906,0.399999952,0.399999952,0.399999952,0.399999952,0.399999952,
0.023523912,-0.003156961,-0.011496753,0.399999952,0.399999952,0.399999952,0.399999952,0.399999952,
0.023520627,-0.003176019,-0.011623362,0.399999952,0.399999952,0.399999952,0.399999952,0.399999952,
0.023511477,-0.003179393,-0.011691669,0.399999952,0.399999952,0.399999952,0.399999952,0.399999952,
0.023499717,-0.00316443,-0.011677503,0.399999952,0.399999952,0.399999952,0.399999952,0.399999952,
0.023490005,-0.003136092,-0.011588653,0.399999952,0.399999952,0.399999952,0.399999952,0.399999952,
0.023485347,-0.003103557,-0.01146029,0.399999952,0.399999952,0.399999952,0.399999952,0.399999952,
0.023486473,-0.003077145,-0.011341845,0.399999952,0.399999952,0.399999952,0.399999952,0.399999952,
0.023492655,-0.003065807,-0.011280053,0.399999952,0.399999952,0.399999952,0.399999952,0.399999952,
0.023501742,-0.003073612,-0.011301442,0.399999952,0.399999952,0.399999952,0.399999952,0.399999952,
0.023511164,-0.00309831,-0.011400407,0.399999952,0.399999952,0.399999952,0.399999952,0.399999952,
0.023519556,-0.003133043,-0.011540462,0.399999952,0.399999952,0.399999952,0.399999952,0.399999952,
0.023527111,-0.003169138,-0.011669151,0.399999952,0.399999952,0.399999952,0.399999952,0.399999952,
0.023535216,-0.003199339,-0.0117389,0.399999952,0.399999952,0.399999952,0.399999952,0.399999952,
0.023545936,-0.003220726,-0.011724921,0.399999952,0.399999952,0.399999952,0.399999952,0.399999952,
0.023560841,-0.003235499,-0.011633398,0.399999952,0.399999952,0.399999952,0.399999952,0.399999952,
0.023579419,-0.003249027,-0.011496931,0.399999952,0.399999952,0.399999952,0.399999952,0.399999952,
0.023598629,-0.003267016,-0.011360901,0.399999952,0.399999952,0.399999952,0.399999952,0.399999952,
0.023614103,-0.003293281,-0.011266745,0.399999952,0.399999952,0.399999952,0.399999952,0.399999952,
0.023621426,-0.003327556,-0.011235927,0.399999952,0.399999952,0.399999952,0.399999952,0.399999952,
0.023616789,-0.003363968,-0.011260647,0.399999952,0.399999952,0.399999952,0.399999952,0.399999952,
0.023597424,-0.003391618,-0.011307844,0.399999952,0.399999952,0.399999952,0.399999952,0.399999952,
0.023562111,-0.003397442,-0.011334966,0.399999952,0.399999952,0.399999952,0.399999952,0.399999952,
0.023512382,-0.003371168,-0.0113092,0.399999952,0.399999952,0.399999952,0.399999952,0.399999952,
0.023453337,-0.003310155,-0.011221338,0.399999952,0.399999952,0.399999952,0.399999952,0.399999952,
0.023392317,-0.00322065,-0.011089191,0.399999952,0.399999952,0.399999952,0.399999952,0.399999952,
0.023336762,-0.00311568,-0.010951235,0.399999952,0.399999952,0.399999952,0.399999952,0.399999952,
0.023292933,-0.003011642,-0.010854307,0.399999952,0.399999952,0.399999952,0.399999952,0.399999952,
0.023265218,-0.002924247,-0.010838939,0.399999952,0.399999952,0.399999952,0.399999952,0.399999952,
0.023255226,-0.002863872,-0.010924362,0.399999952,0.399999952,0.399999952,0.399999952,0.399999952,
0.023261316,-0.00283227,-0.011097798,0.399999952,0.399999952,0.399999952,0.399999952,0.399999952,
0.023280561,-0.002824131,-0.011316247,0.399999952,0.399999952,0.399999952,0.399999952,0.399999952,
0.023312059,-0.002832687,-0.011522092,0.399999952,0.399999952,0.399999952,0.399999952,0.399999952,
0.023357071,-0.002853518,-0.011664586,0.399999952,0.399999952,0.399999952,0.399999952,0.399999952,
0.023415514,-0.002884251,-0.0117178,0.399999952,0.399999952,0.399999952,0.399999952,0.399999952,
0.023483373,-0.002923304,-0.011688378,0.399999952,0.399999952,0.399999952,0.399999952,0.399999952,
0.023553416,-0.002969752,-0.01161082,0.399999952,0.399999952,0.399999952,0.399999952,0.399999952,
0.023617574,-0.003023403,-0.011533763,0.399999952,0.399999952,0.399999952,0.399999952,0.399999952,
0.02366895,-0.003083815,-0.011502696,0.399999952,0.399999952,0.399999952,0.399999952,0.399999952,
0.023702976,-0.00314855,-0.0115428,0.399999952,0.399999952,0.399999952,0.399999952,0.399999952,
0.023717993,-0.003212134,-0.011647639,0.399999952,0.399999952,0.399999952,0.399999952,0.399999952,
0.023715328,-0.003266851,-0.011781228,0.399999952,0.399999952,0.399999952,0.399999952,0.399999952,
0.023698685,-0.003304848,-0.011893374,0.399999952,0.399999952,0.399999952,0.399999952,0.399999952,
0.023673196,-0.003320839,-0.011940078,0.399999952,0.399999952,0.399999952,0.399999952,0.399999952,
0.023644851,-0.003314927,-0.011900797,0.399999952,0.399999952,0.399999952,0.399999952,0.399999952,
0.023619261,-0.003293206,-0.011786337,0.399999952,0.399999952,0.399999952,0.399999952,0.399999952,
0.023599532,-0.003265036,-0.011634215,0.399999952,0.399999952,0.399999952,0.399999952,0.399999952,
0.023585385,-0.00323957,-0.011494762,0.399999952,0.399999952,0.399999952,0.399999952,0.399999952,
0.023574328,-0.003223441,-0.011413776,0.399999952,0.399999952,0.399999952,0.399999952,0.399999952,
0.023563408,-0.003219124,-0.011415441,0.399999952,0.399999952,0.399999952,0.399999952,0.399999952,
0.023550323,-0.003223933,-0.011491417,0.399999952,0.399999952,0.399999952,0.399999952,0.399999952,
0.023533996,-0.003230795,-0.011603556,0.399999952,0.399999952,0.399999952,0.399999952,0.399999952,
0.023515318,-0.003231466,-0.011700114,0.399999952,0.399999952,0.399999952,0.399999952,0.399999952,
0.023497627,-0.003220807,-0.011736983,0.399999952,0.399999952,0.399999952,0.399999952,0.399999952,
0.023485228,-0.003198983,-0.011694548,0.399999952,0.399999952,0.399999952,0.399999952,0.399999952,
0.02348066,-0.003170479,-0.011584104,0.399999952,0.399999952,0.399999952,0.399999952,0.399999952,
0.023483568,-0.003142139,-0.011442585,0.399999952,0.399999952,0.399999952,0.399999952,0.399999952,
0.02349185,-0.003121753,-0.01131933,0.399999952,0.399999952,0.399999952,0.399999952,0.399999952,
0.02350321,-0.003116365,-0.011259368,0.399999952,0.399999952,0.399999952,0.399999952,0.399999952,
0.023515337,-0.003129193,-0.011286004,0.399999952,0.399999952,0.399999952,0.399999952,0.399999952,
0.023525354,-0.00315687,-0.011389139,0.399999952,0.399999952,0.399999952,0.399999952,0.399999952,
0.023530552,-0.00319028,-0.01152819,0.399999952,0.399999952,0.399999952,0.399999952,0.399999952,
0.023529988,-0.003218601,-0.011649219,0.399999952,0.399999952,0.399999952,0.399999952,0.399999952,
0.023524851,-0.003233393,-0.011706473,0.399999952,0.399999952,0.399999952,0.399999952,0.399999952,
0.023517552,-0.003231253,-0.011679468,0.399999952,0.399999952,0.399999952,0.399999952,0.399999952,
0.023510719,-0.003214856,-0.011579905,0.399999952,0.399999952,0.399999952,0.399999952,0.399999952,
0.023506072,-0.003191526,-0.011445807,0.399999952,0.399999952,0.399999952,0.399999952,0.399999952,
0.023503448,-0.003169888,-0.011326846,0.399999952,0.399999952,0.399999952,0.399999952,0.399999952,
0.023501442,-0.003157072,-0.011267407,0.399999952,0.399999952,0.399999952,0.399999952,0.399999952,
0.023498925,-0.003156926,-0.01129057,0.399999952,0.399999952,0.399999952,0.399999952,0.399999952,
0.023495314,-0.003168343,-0.011387566,0.399999952,0.399999952,0.399999952,0.399999952,0.399999952,
0.023490598,-0.003185576,-0.01152024,0.399999952,0.399999952,0.399999952,0.399999952,0.399999952,
0.023485929,-0.003201268,-0.011636823,0.399999952,0.399999952,0.399999952,0.399999952,0.399999952,
0.023483044,-0.003209306,-0.011692568,0.399999952,0.399999952,0.399999952,0.399999952,0.399999952,
0.023482967,-0.003206604,-0.011666951,0.399999952,0.399999952,0.399999952,0.399999952,0.399999952,
0.023485756,-0.003194408,-0.011570969,0.399999952,0.399999952,0.399999952,0.399999952,0.399999952,
0.023490852,-0.003178189,-0.011441627,0.399999952,0.399999952,0.399999952,0.399999952,0.399999952,
0.023496987,-0.003165353,-0.01132769,0.399999952,0.399999952,0.399999952,0.399999952,0.399999952,
0.023502043,-0.003161849,-0.011272519,0.399999952,0.399999952,0.399999952,0.399999952,0.399999952,
0.023503909,-0.003169741,-0.011297616,0.399999952,0.399999952,0.399999952,0.399999952,0.399999952,
0.023501558,-0.003186482,-0.011392481,0.399999952,0.399999952,0.399999952,0.399999952,0.399999952,
0.023495329,-0.00320577,-0.011517948,0.399999952,0.399999952,0.399999952,0.399999952,0.399999952,
0.023486815,-0.003219985,-0.011622844,0.399999952,0.399999952,0.399999952,0.399999952,0.399999952,
0.023478071,-0.003222806,-0.0116647,0.399999952,0.399999952,0.399999952,0.399999952,0.399999952,
0.023470834,-0.003211561,-0.011625682,0.399999952,0.399999952,0.399999952,0.399999952,0.399999952,
0.023466913,-0.003189339,-0.011518965,0.399999952,0.399999952,0.399999952,0.399999952,0.399999952,
0.023467334,-0.003163666,-0.011383019,0.399999952,0.399999952,0.399999952,0.399999952,0.399999952,
0.023470375,-0.003141986,-0.011267009,0.399999952,0.399999952,0.399999952,0.399999952,0.399999952,
0.023472772,-0.003129395,-0.011214073,0.399999952,0.399999952,0.399999952,0.399999952,0.399999952,
0.023473566,-0.003129512,-0.011245578,0.399999952,0.399999952,0.399999952,0.399999952,0.399999952,
0.023475086,-0.003144067,-0.011350766,0.399999952,0.399999952,0.399999952,0.399999952,0.399999952,
0.023479502,-0.003169873,-0.011489723,0.399999952,0.399999952,0.399999952,0.399999952,0.399999952,
0.023486593,-0.003198497,-0.011609879,0.399999952,0.399999952,0.399999952,0.399999952,0.399999952,
0.02349511,-0.003220666,-0.011666751,0.399999952,0.399999952,0.399999952,0.399999952,0.399999952,
0.023503871,-0.003230553,-0.011640305,0.399999952,0.399999952,0.399999952,0.399999952,0.399999952,
0.023511902,-0.003227752,-0.011541911,0.399999952,0.399999952,0.399999952,0.399999952,0.399999952,
0.023518714,-0.003217277,-0.011409402,0.399999952,0.399999952,0.399999952,0.399999952,0.399999952,
0.023524097,-0.003207289,-0.011292918,0.399999952,0.399999952,0.399999952,0.399999952,0.399999952,
0.023527673,-0.0032055,-0.011237189,0.399999952,0.399999952,0.399999952,0.399999952,0.399999952,
0.023528823,-0.003215835,-0.011264627,0.399999952,0.399999952,0.399999952,0.399999952,0.399999952,
0.023526874,-0.003236634,-0.011364947,0.399999952,0.399999952,0.399999952,0.399999952,0.399999952,
0.023521418,-0.003261258,-0.011498326,0.399999952,0.399999952,0.399999952,0.399999952,0.399999952,
0.023513039,-0.003281162,-0.011612155,0.399999952,0.399999952,0.399999952,0.399999952,0.399999952,
0.023503705,-0.003289778,-0.011662445,0.399999952,0.399999952,0.399999952,0.399999952,0.399999952,
0.023496145,-0.003285245,-0.011630494,0.399999952,0.399999952,0.399999952,0.399999952,0.399999952,
0.023492407,-0.00327072,-0.011528982,0.399999952,0.399999952,0.399999952,0.399999952,0.399999952,
0.023492364,-0.003252228,-0.011395693,0.399999952,0.399999952,0.399999952,0.399999952,0.399999952,
0.023493937,-0.00323642,-0.01127947,0.399999952,0.399999952,0.399999952,0.399999952,0.399999952,
0.023494776,-0.003228987,-0.01122384,0.399999952,0.399999952,0.399999952,0.399999952,0.399999952,
0.023493201,-0.00323247,-0.011250735,0.399999952,0.399999952,0.399999952,0.399999952,0.399999952,
0.023488249,-0.003244521,-0.011350309,0.399999952,0.399999952,0.399999952,0.399999952,0.399999952,
0.023480026,-0.003258754,-0.011483983,0.399999952,0.399999952,0.399999952,0.399999952,0.399999952,
0.023470564,-0.003268183,-0.011599941,0.399999952,0.399999952,0.399999952,0.399999952,0.399999952,
0.023463574,-0.003268615,-0.011653696,0.399999952,0.399999952,0.399999952,0.399999952,0.399999952,
0.023461941,-0.003259357,-0.01162543,0.399999952,0.399999952,0.399999952,0.399999952,0.399999952,
0.023465604,-0.003242372,-0.011526998,0.399999952,0.399999952,0.399999952,0.399999952,0.399999952,
0.023472793,-0.003222604,-0.011396067,0.399999952,0.399999952,0.399999952,0.399999952,0.399999952,
0.023482729,-0.003208491,-0.011282197,0.399999952,0.399999952,0.399999952,0.399999952,0.399999952,
0.023495748,-0.003209198,-0.011230132,0.399999952,0.399999952,0.399999952,0.399999952,0.399999952,
0.023510911,-0.003228981,-0.011262297,0.399999952,0.399999952,0.399999952,0.399999952,0.399999952,
0.023525064,-0.00326395,-0.01136743,0.399999952,0.399999952,0.399999952,0.399999952,0.399999952,
0.023534647,-0.003303987,-0.011504438,0.399999952,0.399999952,0.399999952,0.399999952,0.399999952,
0.023537853,-0.003337424,-0.01162004,0.399999952,0.399999952,0.399999952,0.399999952,0.399999952,
0.023535444,-0.003355651,-0.011670343,0.399999952,0.399999952,0.399999952,0.399999952,0.399999952,
0.023529921,-0.003355882,-0.01163742,0.399999952,0.399999952,0.399999952,0.399999952,0.399999952,
0.023524014,-0.00334151,-0.011535295,0.399999952,0.399999952,0.399999952,0.399999952,0.399999952,
0.023519649,-0.003320562,-0.011403557,0.399999952,0.399999952,0.399999952,0.399999952,0.399999952,
0.023517357,-0.003302691,-0.011292392,0.399999952,0.399999952,0.399999952,0.399999952,0.399999952,
0.023516298,-0.003295726,-0.011245166,0.399999952,0.399999952,0.399999952,0.399999952,0.399999952,
0.023515106,-0.003303095,-0.0112822,0.399999952,0.399999952,0.399999952,0.399999952,0.399999952,
0.023512813,-0.003322872,-0.011391032,0.399999952,0.399999952,0.399999952,0.399999952,0.399999952,
0.023508732,-0.003348106,-0.011530276,0.399999952,0.399999952,0.399999952,0.399999952,0.399999952,
0.023502202,-0.003368879,-0.011646637,0.399999952,0.399999952,0.399999952,0.399999952,0.399999952,
0.023493676,-0.003376843,-0.011696395,0.399999952,0.399999952,0.399999952,0.399999952,0.399999952,
0.023485453,-0.003369485,-0.011662206,0.399999952,0.399999952,0.399999952,0.399999952,0.399999952,
0.023480487,-0.003350884,-0.011558961,0.399999952,0.399999952,0.399999952,0.399999952,0.399999952,
0.023480484,-0.003329241,-0.011426794,0.399999952,0.399999952,0.399999952,0.399999952,0.399999952,
0.02348495,-0.003313392,-0.011315726,0.399999952,0.399999952,0.399999952,0.399999952,0.399999952,
0.023491794,-0.00330991,-0.011268267,0.399999952,0.399999952,0.399999952,0.399999952,0.399999952,
0.023498289,-0.003320676,-0.011303326,0.399999952,0.399999952,0.399999952,0.399999952,0.399999952,
0.023501906,-0.003341809,-0.011407288,0.399999952,0.399999952,0.399999952,0.399999952,0.399999952,
0.023501523,-0.003365519,-0.011539082,0.399999952,0.399999952,0.399999952,0.399999952,0.399999952,
0.023497849,-0.003383275,-0.01164686,0.399999952,0.399999952,0.399999952,0.399999952,0.399999952,
0.023492782,-0.003388809,-0.01168821,0.399999952,0.399999952,0.399999952,0.399999952,0.399999952,
0.023488701,-0.003380618,-0.011646517,0.399999952,0.399999952,0.399999952,0.399999952,0.399999952,
0.023487631,-0.003362588,-0.01153679,0.399999952,0.399999952,0.399999952,0.399999952,0.399999952,
0.02349038,-0.003342323,-0.011398978,0.399999952,0.399999952,0.399999952,0.399999952,0.399999952,
0.023496098,-0.003328231,-0.011283202,0.399999952,0.399999952,0.399999952,0.399999952,0.399999952,
0.023502487,-0.003326381,-0.011232316,0.399999952,0.399999952,0.399999952,0.399999952,0.399999952,
0.023506613,-0.003338017,-0.011265457,0.399999952,0.399999952,0.399999952,0.399999952,0.399999952,
0.02350609,-0.003358908,-0.011368952,0.399999952,0.399999952,0.399999952,0.399999952,0.399999952,
0.023500205,-0.003381112,-0.011501265,0.399999952,0.399999952,0.399999952,0.399999952,0.399999952,
0.023490064,-0.003395848,-0.011610037,0.399999952,0.399999952,0.399999952,0.399999952,0.399999952,
0.023477924,-0.003396463,-0.011652687,0.399999952,0.399999952,0.399999952,0.399999952,0.399999952,
0.023466742,-0.003381367,-0.011612645,0.399999952,0.399999952,0.399999952,0.399999952,0.399999952,
0.023459064,-0.003354625,-0.011504804,0.399999952,0.399999952,0.399999952,0.399999952,0.399999952,
0.023455196,-0.003323312,-0.011368446,0.399999952,0.399999952,0.399999952,0.399999952,0.399999952,
0.023453329,-0.003294879,-0.011252808,0.399999952,0.399999952,0.399999952,0.399999952,0.399999952,
0.023451503,-0.00327565,-0.01120039,0.399999952,0.399999952,0.399999952,0.399999952,0.399999952,
0.023448846,-0.003268979,-0.011230636,0.399999952,0.399999952,0.399999952,0.399999952,0.399999952,
0.023445235,-0.003273334,-0.011330184,0.399999952,0.399999952,0.399999952,0.399999952,0.399999952,
0.023440501,-0.00328213,-0.011457336,0.399999952,0.399999952,0.399999952,0.399999952,0.399999952,
0.023434713,-0.003286522,-0.011559729,0.399999952,0.399999952,0.399999952,0.399999952,0.399999952,
0.023428924,-0.003279583,-0.011595602,0.399999952,0.399999952,0.399999952,0.399999952,0.399999952,
0.023425083,-0.003259381,-0.01154963,0.399999952,0.399999952,0.399999952,0.399999952,0.399999952,
0.02342533,-0.003229887,-0.011437956,0.399999952,0.399999952,0.399999952,0.399999952,0.399999952,
0.023430828,-0.003199209,-0.011301077,0.399999952,0.399999952,0.399999952,0.399999952,0.399999952,
0.023440888,-0.003176233,-0.011188945,0.399999952,0.399999952,0.399999952,0.399999952,0.399999952,
0.023453409,-0.003167582,-0.011143939,0.399999952,0.399999952,0.399999952,0.399999952,0.399999952,
0.023465721,-0.00317513,-0.011184754,0.399999952,0.399999952,0.399999952,0.399999952,0.399999952,
0.023475032,-0.003194642,-0.01129681,0.399999952,0.399999952,0.399999952,0.399999952,0.399999952,
0.023479232,-0.003217166,-0.011437036,0.399999952,0.399999952,0.399999952,0.399999952,0.399999952,
0.023478011,-0.003232803,-0.011552147,0.399999952,0.399999952,0.399999952,0.399999952,0.399999952,
0.023473035,-0.00323455,-0.011600089,0.399999952,0.399999952,0.399999952,0.399999952,0.399999952,
0.02346696,-0.003220662,-0.011565355,0.399999952,0.399999952,0.399999952,0.399999952,0.399999952,
0.023461831,-0.003194611,-0.011463533,0.399999952,0.399999952,0.399999952,0.399999952,0.399999952,
0.023457968,-0.003163111,-0.011334368,0.399999952,0.399999952,0.399999952,0.399999952,0.399999952,
0.023454319,-0.003133908,-0.011227375,0.399999952,0.399999952,0.399999952,0.399999952,0.399999952,
0.023449777,-0.003113814,-0.011184865,0.399999952,0.399999952,0.399999952,0.399999952,0.399999952,
0.023444354,-0.003106808,-0.0112256,0.399999952,0.399999952,0.399999952,0.399999952,0.399999952,
0.023439259,-0.003112548,-0.011335469,0.399999952,0.399999952,0.399999952,0.399999952,0.399999952,
0.023435662,-0.00312581,-0.011472456,0.399999952,0.399999952,0.399999952,0.399999952,0.399999952,
0.023434017,-0.003138242,-0.011584117,0.399999952,0.399999952,0.399999952,0.399999952,0.399999952,
0.023434932,-0.003142632,-0.011628326,0.399999952,0.399999952,0.399999952,0.399999952,0.399999952,
0.023439706,-0.003136677,-0.011589167,0.399999952,0.399999952,0.399999952,0.399999952,0.399999952,
0.023449623,-0.003123854,-0.011482444,0.399999952,0.399999952,0.399999952,0.399999952,0.399999952,
0.023464584,-0.003111252,-0.011348799,0.399999952,0.399999952,0.399999952,0.399999952,0.399999952,
0.023482195,-0.003105947,-0.011238711,0.399999952,0.399999952,0.399999952,0.399999952,0.399999952,
0.023498895,-0.003112559,-0.011195013,0.399999952,0.399999952,0.399999952,0.399999952,0.399999952,
0.023511868,-0.003132016,-0.01123619,0.399999952,0.399999952,0.399999952,0.399999952,0.399999952,
0.023519412,-0.003160423,-0.011346953,0.399999952,0.399999952,0.399999952,0.399999952,0.399999952,
0.023520482,-0.00318939,-0.011483753,0.399999952,0.399999952,0.399999952,0.399999952,0.399999952,
0.023515235,-0.003209234,-0.011593453,0.399999952,0.399999952,0.399999952,0.399999952,0.399999952,
0.023505816,-0.003213406,-0.011634868,0.399999952,0.399999952,0.399999952,0.399999952,0.399999952,
0.023495673,-0.003201172,-0.01159388,0.399999952,0.399999952,0.399999952,0.399999952,0.399999952,
0.023487704,-0.003177272,-0.011487428,0.399999952,0.399999952,0.399999952,0.399999952,0.399999952,
0.023482887,-0.003149588,-0.011356013,0.399999952,0.399999952,0.399999952,0.399999952,0.399999952,
0.023480338,-0.003126459,-0.01124894,0.399999952,0.399999952,0.399999952,0.399999952,0.399999952,
0.023478617,-0.003114527,-0.011207397,0.399999952,0.399999952,0.399999952,0.399999952,0.399999952,
0.023476958,-0.003116905,-0.011248727,0.399999952,0.399999952,0.399999952,0.399999952,0.399999952,
0.023475112,-0.003131561,-0.011357871,0.399999952,0.399999952,0.399999952,0.399999952,0.399999952,
0.02347249,-0.00315117,-0.011492495,0.399999952,0.399999952,0.399999952,0.399999952,0.399999952,
0.023468357,-0.003165779,-0.011600057,0.399999952,0.399999952,0.399999952,0.399999952,0.399999952,
0.023462962,-0.003167416,-0.011638673,0.399999952,0.399999952,0.399999952,0.399999952,0.399999952,
0.023457829,-0.003153662,-0.011593506,0.399999952,0.399999952,0.399999952,0.399999952,0.399999952,
0.02345494,-0.003128424,-0.011482082,0.399999952,0.399999952,0.399999952,0.399999952,0.399999952,
0.023455812,-0.00310026,-0.011346585,0.399999952,0.399999952,0.399999952,0.399999952,0.399999952,
0.023460546,-0.003078888,-0.011237705,0.399999952,0.399999952,0.399999952,0.399999952,0.399999952,
0.023467778,-0.00307158,-0.011196787,0.399999952,0.399999952,0.399999952,0.399999952,0.399999952,
0.023475862,-0.00308099,-0.011240349,0.399999952,0.399999952,0.399999952,0.399999952,0.399999952,
0.023483326,-0.003103991,-0.011351919,0.399999952,0.399999952,0.399999952,0.399999952,0.399999952,
0.023488646,-0.003132214,-0.011487809,0.399999952,0.399999952,0.399999952,0.399999952,0.399999952,
0.023490927,-0.003155401,-0.011595334,0.399999952,0.399999952,0.399999952,0.399999952,0.399999952,
0.023490635,-0.003165688,-0.011633736,0.399999952,0.399999952,0.399999952,0.399999952,0.399999952,
0.023489307,-0.003160561,-0.011589304,0.399999952,0.399999952,0.399999952,0.399999952,0.399999952,
0.023488788,-0.003143658,-0.011479565,0.399999952,0.399999952,0.399999952,0.399999952,0.399999952,
0.023490064,-0.003122781,-0.011345642,0.399999952,0.399999952,0.399999952,0.399999952,0.399999952,
0.023492423,-0.003106326,-0.011237379,0.399999952,0.399999952,0.399999952,0.399999952,0.399999952,
0.023494215,-0.003100504,-0.011196095,0.399999952,0.399999952,0.399999952,0.399999952,0.399999952,
0.02349416,-0.003107486,-0.01123839,0.399999952,0.399999952,0.399999952,0.399999952,0.399999952,
0.023491752,-0.003124423,-0.011347862,0.399999952,0.399999952,0.399999952,0.399999952,0.399999952,
0.023487086,-0.003144263,-0.01148117,0.399999952,0.399999952,0.399999952,0.399999952,0.399999952,
0.023480647,-0.003158272,-0.011586037,0.399999952,0.399999952,0.399999952,0.399999952,0.399999952,
0.023473357,-0.00315952,-0.011622007,0.399999952,0.399999952,0.399999952,0.399999952,0.399999952,
0.023466517,-0.003145813,-0.011575483,0.399999952,0.399999952,0.399999952,0.399999952,0.399999952,
0.023461569,-0.003120726,-0.011464188,0.399999952,0.399999952,0.399999952,0.399999952,0.399999952,
0.023459976,-0.003092688,-0.011329982,0.399999952,0.399999952,0.399999952,0.399999952,0.399999952,
0.02346247,-0.00307185,-0.011223416,0.399999952,0.399999952,0.399999952,0.399999952,0.399999952,
0.023468397,-0.003066016,-0.011185748,0.399999952,0.399999952,0.399999952,0.399999952,0.399999952,
0.023476177,-0.003077753,-0.011232943,0.399999952,0.399999952,0.399999952,0.399999952,0.399999952,
0.023483612,-0.003102993,-0.011347617,0.399999952,0.399999952,0.399999952,0.399999952,0.399999952,
0.023488434,-0.003132363,-0.011485347,0.399999952,0.399999952,0.399999952,0.399999952,0.399999952,
0.023490026,-0.003155736,-0.011592963,0.399999952,0.399999952,0.399999952,0.399999952,0.399999952,
0.023490042,-0.003166634,-0.011629466,0.399999952,0.399999952,0.399999952,0.399999952,0.399999952,
0.023491045,-0.003164102,-0.011581757,0.399999952,0.399999952,0.399999952,0.399999952,0.399999952,
0.023495052,-0.003152546,-0.011469179,0.399999952,0.399999952,0.399999952,0.399999952,0.399999952,
0.023502549,-0.003139665,-0.011334797,0.399999952,0.399999952,0.399999952,0.399999952,0.399999952,
0.023511796,-0.003132957,-0.011229081,0.399999952,0.399999952,0.399999952,0.399999952,0.399999952,
0.023519575,-0.003136917,-0.011192426,0.399999952,0.399999952,0.399999952,0.399999952,0.399999952,
0.023522749,-0.003151467,-0.011239524,0.399999952,0.399999952,0.399999952,0.399999952,0.399999952,
0.023519177,-0.003171457,-0.011351887,0.399999952,0.399999952,0.399999952,0.399999952,0.399999952,
0.02350845,-0.003188468,-0.011484852,0.399999952,0.399999952,0.399999952,0.399999952,0.399999952,
0.023492205,-0.003194149,-0.011586025,0.399999952,0.399999952,0.399999952,0.399999952,0.399999952,
0.023473622,-0.003183435,-0.01161616,0.399999952,0.399999952,0.399999952,0.399999952,0.399999952,
0.023456908,-0.003157184,-0.011564232,0.399999952,0.399999952,0.399999952,0.399999952,0.399999952,
0.02344631,-0.003122524,-0.011450735,0.399999952,0.399999952,0.399999952,0.399999952,0.399999952,
0.023444512,-0.003090206,-0.011318716,0.399999952,0.399999952,0.399999952,0.399999952,0.399999952,
0.023451665,-0.003070769,-0.011218132,0.399999952,0.399999952,0.399999952,0.399999952,0.399999952,
0.023465125,-0.003070584,-0.011188463,0.399999952,0.399999952,0.399999952,0.399999952,0.399999952,
0.023480065,-0.003088975,-0.011242935,0.399999952,0.399999952,0.399999952,0.399999952,0.399999952,
0.02349155,-0.003118639,-0.011361434,0.399999952,0.399999952,0.399999952,0.399999952,0.399999952,
0.023496886,-0.003149102,-0.011498054,0.399999952,0.399999952,0.399999952,0.399999952,0.399999952,
0.023496366,-0.003170676,-0.011600001,0.399999952,0.399999952,0.399999952,0.399999952,0.399999952,
0.023492395,-0.003177428,-0.011628495,0.399999952,0.399999952,0.399999952,0.399999952,0.399999952,
0.023488092,-0.003168897,-0.011573176,0.399999952,0.399999952,0.399999952,0.399999952,0.399999952,
0.023485997,-0.003150016,-0.011455056,0.399999952,0.399999952,0.399999952,0.399999952,0.399999952,
0.023487256,-0.003129185,-0.011317891,0.399999952,0.399999952,0.399999952,0.399999952,0.399999952,
0.023491439,-0.0031153,-0.011212406,0.399999952,0.399999952,0.399999952,0.399999952,0.399999952,
0.02349683,-0.003114517,-0.011178755,0.399999952,0.399999952,0.399999952,0.399999952,0.399999952,
0.023501009,-0.003127677,-0.01123103,0.399999952,0.399999952,0.399999952,0.399999952,0.399999952,
0.023501781,-0.003149841,-0.011349753,0.399999952,0.399999952,0.399999952,0.399999952,0.399999952,
0.023498075,-0.003172289,-0.011488788,0.399999952,0.399999952,0.399999952,0.399999952,0.399999952,
0.023490277,-0.003185746,-0.011594575,0.399999952,0.399999952,0.399999952,0.399999952,0.399999952,
0.023479842,-0.003183565,-0.011627669,0.399999952,0.399999952,0.399999952,0.399999952,0.399999952,
0.023468797,-0.003164291,-0.011577484,0.399999952,0.399999952,0.399999952,0.399999952,0.399999952,
0.023459815,-0.003133054,-0.01146518,0.399999952,0.399999952,0.399999952,0.399999952,0.399999952,
0.023455566,-0.003100042,-0.011334327,0.399999952,0.399999952,0.399999952,0.399999952,0.399999952,
0.023457201,-0.003076317,-0.011234868,0.399999952,0.399999952,0.399999952,0.399999952,0.399999952,
0.02346389,-0.00306979,-0.011206102,0.399999952,0.399999952,0.399999952,0.399999952,0.399999952,
0.023473071,-0.003082123,-0.011261408,0.399999952,0.399999952,0.399999952,0.399999952,0.399999952,
0.023480756,-0.003107303,-0.011380651,0.399999952,0.399999952,0.399999952,0.399999952,0.399999952,
0.023483099,-0.003133984,-0.011517347,0.399999952,0.399999952,0.399999952,0.399999952,0.399999952,
0.023479017,-0.003151077,-0.011618246,0.399999952,0.399999952,0.399999952,0.399999952,0.399999952,
0.023471259,-0.003152817,-0.011644752,0.399999952,0.399999952,0.399999952,0.399999952,0.399999952,
0.023464529,-0.003140282,-0.01158722,0.399999952,0.399999952,0.399999952,0.399999952,0.399999952,
0.023462531,-0.003119719,-0.011467615,0.399999952,0.399999952,0.399999952,0.399999952,0.399999952,
0.023466304,-0.003099667,-0.011330282,0.399999952,0.399999952,0.399999952,0.399999952,0.399999952,
0.023474534,-0.003088407,-0.011226006,0.399999952,0.399999952,0.399999952,0.399999952,0.399999952,
0.023484703,-0.003091596,-0.011194506,0.399999952,0.399999952,0.399999952,0.399999952,0.399999952,
0.023493739,-0.003109678,-0.0112486,0.399999952,0.399999952,0.399999952,0.399999952,0.399999952,
0.023498544,-0.003136847,-0.011367431,0.399999952,0.399999952,0.399999952,0.399999952,0.399999952,
0.023497094,-0.003163181,-0.011504692,0.399999952,0.399999952,0.399999952,0.399999952,0.399999952,
0.023489846,-0.003179139,-0.011607634,0.399999952,0.399999952,0.399999952,0.399999952,0.399999952,
0.023480387,-0.003180161,-0.011637846,0.399999952,0.399999952,0.399999952,0.399999952,0.399999952,
0.023473545,-0.003168052,-0.011585623,0.399999952,0.399999952,0.399999952,0.399999952,0.399999952,
0.023471787,-0.003148317,-0.011472136,0.399999952,0.399999952,0.399999952,0.399999952,0.399999952,
0.023473789,-0.003127106,-0.011340031,0.399999952,0.399999952,0.399999952,0.399999952,0.399999952,
0.023476564,-0.003110384,-0.011238416,0.399999952,0.399999952,0.399999952,0.399999952,0.399999952,
0.02347804,-0.003103357,-0.011206203,0.399999952,0.399999952,0.399999952,0.399999952,0.399999952,
0.023477419,-0.003108142,-0.011256425,0.399999952,0.399999952,0.399999952,0.399999952,0.399999952,
0.023474531,-0.003121928,-0.011369155,0.399999952,0.399999952,0.399999952,0.399999952,0.399999952,
0.023470017,-0.003138206,-0.011499523,0.399999952,0.399999952,0.399999952,0.399999952,0.399999952,
0.023465562,-0.00314985,-0.011596424,0.399999952,0.399999952,0.399999952,0.399999952,0.399999952,
0.023462997,-0.003151648,-0.011622347,0.399999952,0.399999952,0.399999952,0.399999952,0.399999952,
0.023463303,-0.003142057,-0.011567399,0.399999952,0.399999952,0.399999952,0.399999952,0.399999952,
0.023466527,-0.003124125,-0.011452497,0.399999952,0.399999952,0.399999952,0.399999952,0.399999952,
0.023471877,-0.003104457,-0.011320655,0.399999952,0.399999952,0.399999952,0.399999952,0.399999952,
0.023477998,-0.003090785,-0.011221448,0.399999952,0.399999952,0.399999952,0.399999952,0.399999952,
0.0234836,-0.003089252,-0.011193737,0.399999952,0.399999952,0.399999952,0.399999952,0.399999952,
0.0234876,-0.003101583,-0.011249951,0.399999952,0.399999952,0.399999952,0.399999952,0.399999952,
0.023489069,-0.003123784,-0.011369153,0.399999952,0.399999952,0.399999952,0.399999952,0.399999952,
0.023487369,-0.00314746,-0.011505028,0.399999952,0.399999952,0.399999952,0.399999952,0.399999952,
0.023482628,-0.003163253,-0.011605098,0.399999952,0.399999952,0.399999952,0.399999952,0.399999952,
0.023476561,-0.003165261,-0.011631793,0.399999952,0.399999952,0.399999952,0.399999952,0.399999952,
0.023472094,-0.003153655,-0.01157661,0.399999952,0.399999952,0.399999952,0.399999952,0.399999952,
0.023471487,-0.003133857,-0.011461789,0.399999952,0.399999952,0.399999952,0.399999952,0.399999952,
0.023475202,-0.003114145,-0.01133063,0.399999952,0.399999952,0.399999952,0.399999952,0.399999952,
0.023481891,-0.003102713,-0.011232261,0.399999952,0.399999952,0.399999952,0.399999952,0.399999952,
0.023488485,-0.003104104,-0.011204761,0.399999952,0.399999952,0.399999952,0.399999952,0.399999952,
0.023490775,-0.00311651,-0.011259708,0.399999952,0.399999952,0.399999952,0.399999952,0.399999952,
0.023485383,-0.003132457,-0.011375562,0.399999952,0.399999952,0.399999952,0.399999952,0.399999952,
0.023472375,-0.003143025,-0.011506149,0.399999952,0.399999952,0.399999952,0.399999952,0.399999952,
0.023455711,-0.003141927,-0.011599978,0.399999952,0.399999952,0.399999952,0.399999952,0.399999952,
0.023441235,-0.003127524,-0.011620443,0.399999952,0.399999952,0.399999952,0.399999952,0.399999952,
0.023434217,-0.003103319,-0.011559596,0.399999952,0.399999952,0.399999952,0.399999952,0.399999952,
0.023437162,-0.003076429,-0.011440468,0.399999952,0.399999952,0.399999952,0.399999952,0.399999952,
0.023449595,-0.003055608,-0.011307552,0.399999952,0.399999952,0.399999952,0.399999952,0.399999952,
0.023469434,-0.003049461,-0.011210867,0.399999952,0.399999952,0.399999952,0.399999952,0.399999952,
0.023493081,-0.003062915,-0.011188291,0.399999952,0.399999952,0.399999952,0.399999952,0.399999952,
0.023515434,-0.003094045,-0.011249779,0.399999952,0.399999952,0.399999952,0.399999952,0.399999952,
0.023531528,-0.003134444,-0.011371464,0.399999952,0.399999952,0.399999952,0.399999952,0.399999952,
0.023538601,-0.003172672,-0.011505338,0.399999952,0.399999952,0.399999952,0.399999952,0.399999952,
0.023537155,-0.003198721,-0.011599333,0.399999952,0.399999952,0.399999952,0.399999952,0.399999952,
0.023530285,-0.003207289,-0.011617638,0.399999952,0.399999952,0.399999952,0.399999952,0.399999952,
0.023521898,-0.003198967,-0.011553825,0.399999952,0.399999952,0.399999952,0.399999952,0.399999952,
0.023514877,-0.003179333,-0.011432107,0.399999952,0.399999952,0.399999952,0.399999952,0.399999952,
0.023510197,-0.003156738,-0.011297109,0.399999952,0.399999952,0.399999952,0.399999952,0.399999952,
0.023507289,-0.003139806,-0.011198038,0.399999952,0.399999952,0.399999952,0.399999952,0.399999952,
0.023504605,-0.003134495,-0.011171524,0.399999952,0.399999952,0.399999952,0.399999952,0.399999952,
0.023500184,-0.003141599,-0.011226549,0.399999952,0.399999952,0.399999952,0.399999952,0.399999952,
0.023492605,-0.003156477,-0.011339344,0.399999952,0.399999952,0.399999952,0.399999952,0.399999952,
0.023481569,-0.003170904,-0.011463182,0.399999952,0.399999952,0.399999952,0.399999952,0.399999952,
0.02346782,-0.003176068,-0.011547606,0.399999952,0.399999952,0.399999952,0.399999952,0.399999952,
0.023453071,-0.003166108,-0.011557766,0.399999952,0.399999952,0.399999952,0.399999952,0.399999952,
0.023439843,-0.003140882,-0.011487174,0.399999952,0.399999952,0.399999952,0.399999952,0.399999952,
0.023430547,-0.003106061,-0.011359414,0.399999952,0.399999952,0.399999952,0.399999952,0.399999952,
0.023426219,-0.003070558,-0.011218508,0.399999952,0.399999952,0.399999952,0.399999952,0.399999952,
0.023426407,-0.003043565,-0.011113292,0.399999952,0.399999952,0.399999952,0.399999952,0.399999952,
0.023430355,-0.003032316,-0.011080683,0.399999952,0.399999952,0.399999952,0.399999952,0.399999952,
0.023437574,-0.003039758,-0.01113096,0.399999952,0.399999952,0.399999952,0.399999952,0.399999952,
0.023447076,-0.003062546,-0.0112417,0.399999952,0.399999952,0.399999952,0.399999952,0.399999952,
0.023457067,-0.003091694,-0.011366417,0.399999952,0.399999952,0.399999952,0.399999952,0.399999952,
0.023466127,-0.003116582,-0.011454046,0.399999952,0.399999952,0.399999952,0.399999952,0.399999952,
0.02347434,-0.003129751,-0.011469014,0.399999952,0.399999952,0.399999952,0.399999952,0.399999952,
0.023483062,-0.003129689,-0.011404353,0.399999952,0.399999952,0.399999952,0.399999952,0.399999952,
0.023493874,-0.003120856,-0.01128383,0.399999952,0.399999952,0.399999952,0.399999952,0.399999952,
0.023507609,-0.003111575,-0.011152353,0.399999952,0.399999952,0.399999952,0.399999952,0.399999952,
0.023523841,-0.003110774,-0.01105956,0.399999952,0.399999952,0.399999952,0.399999952,0.399999952,
0.023540675,-0.003124189,-0.011042226,0.399999952,0.399999952,0.399999952,0.399999952,0.399999952,
